9.831937799043063975e-02 2.717942583732058104e-01 7.748803827751199469e-02 8.252990430622014761e-02 5.041866028708132975e-03 3.701136363636363114e-01 5.581330962299316800e-01 5.831763235751815655e-01 1.635803696526214992e+02 1.368759458418375541e+00 3.963557035573255227e+00 2.240546468597807745e+02 2.724328444002221516e+00 5.448656888004443033e+00 8.172985332006666326e+00 1.089731377600888607e+01 1.362164222001111824e+01 1.640999115056903079e+01 1.918267549399098471e+01 1.686482787974616997e+02 5.182722604539342370e+01 1.847756899848356227e+01 1.178015160403389672e+01 6.726100398446733131e+00 4.271549963436155117e+00 3.356458971279707271e+00
1.066933638443935684e-01 2.716418764302060973e-01 7.418764302059498161e-02 8.014302059496568320e-02 5.955377574370707659e-03 3.783352402745994714e-01 6.105855649547797803e-01 6.452557657353550358e-01 1.602054286363739095e+02 1.402633956330722409e+00 3.739520965395682239e+00 2.250857607863297289e+02 2.665507494146994727e+00 5.331014988293989454e+00 7.996522482440983737e+00 1.066202997658797891e+01 1.332753747073497763e+01 1.599304496488196747e+01 1.865855245902897153e+01 1.616134963520327119e+02 5.382240270869217369e+01 1.762283096669804294e+01 1.121094893014558203e+01 7.106199904241071508e+00 4.687747659953839019e+00 3.514880817315432449e+00
1.073450292397661043e-01 2.888362573099415020e-01 8.307602339181287265e-02 8.608771929824562963e-02 3.011695906432750470e-03 3.961812865497076341e-01 5.949238751445616868e-01 6.032791372798520513e-01 1.529412479788795167e+02 1.377720557791989764e+00 3.732158711390988870e+00 2.110592634085768680e+02 2.547577798204989641e+00 5.095155596409979282e+00 7.642733394614972475e+00 1.019031119281995856e+01 1.273788899102495620e+01 1.528546678922994495e+01 1.784504038890441535e+01 1.775011188772848243e+02 5.347680755853671997e+01 1.621917757726565412e+01 1.062313321425621027e+01 6.763262501558603645e+00 4.339148301740030966e+00 3.382885210142470900e+00
9.897581792318635441e-02 2.868634423897582497e-01 8.347795163584635636e-02 8.740398293029873200e-02 3.926031294452346151e-03 3.858392603129444098e-01 5.376535364734936762e-01 5.545296989000765286e-01 1.567490816061072962e+02 1.350554731893237825e+00 4.019890242477258901e+00 2.118450458164645056e+02 2.612332789152178592e+00 5.224665578304357183e+00 7.836998367456536663e+00 1.044933115660871437e+01 1.306166394576090006e+01 1.567399673491307333e+01 1.834996656831172146e+01 1.769942781886053922e+02 5.545181540650803242e+01 1.655473604094371609e+01 1.049336964144095319e+01 6.906801676379220822e+00 4.479734845467264748e+00 3.533110009534262463e+00
1.104714912280701927e-01 2.748903508771929904e-01 7.754934210526316651e-02 7.858552631578950842e-02 1.036184210526314153e-03 3.853618421052631970e-01 5.907777983568499591e-01 5.923098221294212928e-01 1.561172123962341516e+02 1.403157575586473582e+00 3.548725015389144755e+00 2.188892964254158642e+02 2.601953539937235771e+00 5.203907079874471542e+00 7.805860619811704204e+00 1.040781415974894308e+01 1.300976769968617930e+01 1.561172123962340841e+01 1.821367477956065528e+01 1.782862776214661835e+02 5.042819265430146203e+01 1.378381872352974646e+01 1.011555459424474890e+01 6.062983717350351576e+00 3.998329216873736325e+00 3.218878744375492484e+00
1.067054655870445512e-01 2.857793522267206843e-01 7.212044534412953567e-02 7.321356275303643468e-02 1.093117408906881883e-03 3.924848178137653187e-01 6.582149137404869066e-01 6.605778218903378685e-01 1.531785209491871171e+02 1.375043015449272321e+00 3.741520133568966067e+00 2.105189030986527428e+02 2.552449199516160672e+00 5.104898399032321343e+00 7.657347598548481571e+00 1.020979679806464269e+01 1.276224599758080736e+01 1.531469519709696314e+01 1.786714439661313136e+01 1.745441499212584517e+02 5.396893855323150291e+01 1.638512778579068296e+01 1.021845151650926908e+01 6.929123595706713878e+00 4.239294821538812208e+00 3.420091824876776876e+00
1.027323628219484891e-01 2.858566629339306941e-01 7.833706606942890394e-02 8.195408734602463441e-02 3.617021276595744350e-03 3.885890257558790029e-01 6.046439210869247738e-01 6.305904617009868707e-01 1.549769472852549654e+02 1.361629692496833632e+00 3.860015634755109559e+00 2.110211207381210556e+02 2.582572711058339188e+00 5.165145422116678375e+00 7.747718133175016675e+00 1.033029084423335675e+01 1.291286355529169150e+01 1.549543626635003335e+01 1.807800897740837343e+01 1.680741349828269620e+02 5.573060376612626499e+01 1.690759745899519828e+01 1.059769549190607663e+01 7.227359401580122800e+00 4.382240129265229100e+00 3.543646871712324398e+00
1.059988038277511896e-01 2.804784688995214381e-01 7.811602870813397215e-02 8.318779904306218553e-02 5.071770334928226397e-03 3.864772727272727804e-01 5.728866864491611866e-01 5.912321551155895749e-01 1.563007174179664389e+02 1.386569806107383451e+00 3.774386346539584824e+00 2.172232620843325037e+02 2.605011956966107434e+00 5.210023913932214867e+00 7.815035870898322301e+00 1.042004782786442973e+01 1.302505978483053894e+01 1.563007174179664460e+01 1.830034782652688108e+01 1.674244999714306914e+02 5.680595679164495948e+01 1.733230829104334703e+01 1.087637700066576762e+01 7.305481842282285143e+00 4.590901321765545440e+00 3.528898691351562533e+00
9.319548872180449806e-02 3.394887218045112842e-01 1.280902255639097820e-01 1.280902255639097820e-01 0.000000000000000000e+00 4.326842105263157823e-01 3.869860787855609052e-01 3.869860787855609052e-01 1.397184501218135608e+02 1.278914558391856193e+00 4.704774718778935494e+00 1.789808953219447005e+02 2.317167663402662559e+00 4.634335326805325117e+00 6.951502990207989008e+00 9.268670653610650234e+00 1.158583831701331412e+01 1.390300598041597802e+01 1.622017364381863658e+01 2.278690278059040395e+02 5.791738920793876844e+01 1.625761024331417914e+01 1.013557420311605206e+01 6.815900582878583691e+00 4.296327435635034497e+00 3.351781163722531875e+00
1.020394736842105271e-01 3.254239766081871155e-01 1.114546783625731119e-01 1.131067251461988499e-01 1.652046783625730391e-03 4.274634502923975732e-01 4.467513347872720808e-01 4.544883442290462150e-01 1.410507903083038457e+02 1.316871901545635604e+00 4.283135707366607647e+00 1.858408246922029718e+02 2.344588600182357041e+00 4.689177200364714082e+00 7.033765800547073788e+00 9.378354400729428164e+00 1.172294300091178876e+01 1.406753160109414758e+01 1.643325738157664517e+01 2.134940523974603934e+02 5.620253772374167056e+01 1.675091617082358653e+01 1.105354323708983344e+01 6.992085404730738141e+00 4.231993441161557179e+00 3.489296527424216254e+00
1.120000000000000162e-01 2.986666666666666359e-01 1.143333333333333285e-01 1.233333333333333365e-01 9.000000000000001055e-03 4.106666666666666798e-01 3.840673894994700022e-01 4.291533220378900837e-01 1.465380920069148090e+02 1.378549465316413869e+00 3.791604426169643993e+00 2.017719100358393121e+02 2.442301533448580475e+00 4.884603066897160950e+00 7.326904600345741869e+00 9.769206133794321900e+00 1.221150766724290015e+01 1.465380920069148374e+01 1.725675330442118494e+01 1.842255007283402506e+02 6.222814306122784700e+01 1.566628776078956342e+01 1.188409504401005456e+01 6.607319341243294453e+00 4.934315279721115388e+00 3.571386593615346161e+00
1.116015037593985210e-01 2.953533834586467011e-01 1.100526315789473880e-01 1.108496240601503785e-01 7.969924812030065343e-04 4.069548872180452359e-01 4.079777628487650798e-01 4.095983864443307754e-01 1.488751380011716776e+02 1.380068371981297837e+00 3.715117588016573880e+00 2.053072734384344926e+02 2.480122839667454837e+00 4.960245679334909674e+00 7.440368519002363179e+00 9.920491358669819348e+00 1.240061419833727108e+01 1.488073703800472636e+01 1.742970669350694735e+01 2.043042669393231563e+02 4.816628904902454877e+01 1.423880228214940402e+01 9.473693711931566952e+00 5.852943621219941939e+00 3.985024621444575477e+00 3.029897127124985712e+00
1.130427631578947434e-01 3.287171052631578938e-01 1.083717105263157648e-01 1.096217105263157798e-01 1.250000000000000677e-03 4.417598684210526372e-01 4.485187636872936534e-01 4.497374998106623001e-01 1.365024330700999542e+02 1.346298593987561798e+00 3.944170955683960145e+00 1.839234803566947676e+02 2.272495649897448455e+00 4.544991299794896911e+00 6.817486949692345810e+00 9.089982599589793821e+00 1.136247824948724627e+01 1.363497389938469162e+01 1.590746954928213874e+01 2.214163334142526764e+02 5.989638276717723642e+01 1.583143383729295195e+01 1.061182449471423617e+01 7.154203757754349802e+00 4.379056714167580466e+00 3.495265419384130379e+00
1.114860681114551305e-01 3.286996904024767630e-01 1.092414860681114874e-01 1.107739938080495451e-01 1.532507739938081953e-03 4.401857585139317686e-01 4.319407800811960185e-01 4.549517670615485510e-01 1.368305860301218502e+02 1.341202139285135875e+00 3.992661308159678679e+00 1.835638647615193690e+02 2.275854010143518735e+00 4.551708020287037471e+00 6.827562030430555318e+00 9.103416040574074941e+00 1.137927005071759545e+01 1.365512406086111064e+01 1.593097807100462404e+01 2.273706480279953155e+02 5.862242901469397083e+01 1.728706357744707844e+01 1.018950052861082867e+01 7.081564135638434010e+00 4.486435118661463939e+00 3.374451764231635398e+00
1.154655870445343985e-01 2.634682860998650566e-01 1.005533063427800633e-01 1.032591093117408987e-01 2.705802968960863576e-03 3.789338731443995245e-01 3.976714601254223713e-01 4.167421476168409744e-01 1.594486233346786150e+02 1.445243203371645357e+00 3.337294741057464709e+00 2.307888886824360100e+02 2.657099036624107402e+00 5.314198073248214804e+00 7.971297109872320874e+00 1.062839614649642961e+01 1.328549518312053834e+01 1.594259421974464175e+01 1.859969325636874871e+01 1.825128409558392377e+02 4.430854375248175359e+01 1.260731137731123752e+01 9.678161282787858255e+00 5.103813389718666826e+00 3.903628133131547884e+00 2.760978260310513743e+00
1.159442724458204510e-01 2.856191950464396223e-01 1.122291021671826955e-01 1.122910216718266546e-01 6.191950464396290350e-05 4.015634674922600733e-01 3.831263180331852536e-01 3.831464232394510283e-01 1.499738897576258694e+02 1.412795580265295836e+00 3.502701878027796312e+00 2.123600478838805543e+02 2.497528672391420290e+00 4.995057344782840580e+00 7.492586017174259538e+00 9.990114689565681161e+00 1.248764336195709923e+01 1.498517203434851908e+01 1.748270070673994070e+01 2.069981056856973680e+02 4.222860184918328486e+01 1.223130457516038661e+01 9.619817882440226953e+00 4.905521137296774192e+00 3.814911196491186818e+00 2.740478149985453804e+00
1.141315789473684034e-01 2.755065789473684079e-01 9.821710526315793888e-02 9.851315789473687190e-02 2.960526315789477141e-04 3.896381578947368807e-01 4.245267446292387836e-01 4.248107098783989177e-01 1.552677154255194978e+02 1.421914457522917008e+00 3.477804621490724113e+00 2.214790193118353727e+02 2.584719865215054480e+00 5.169439730430108959e+00 7.754159595645165659e+00 1.033887946086021792e+01 1.292359932607527639e+01 1.550831919129033132e+01 1.809303905650539335e+01 2.003702557987269586e+02 4.291183587007394351e+01 1.247978964720562978e+01 9.375351976343775817e+00 4.969168572644211856e+00 3.738586475996162672e+00 2.775254289866622148e+00
9.748395378690628832e-02 3.148202824133504718e-01 7.538510911424903260e-02 8.604621309370988347e-02 1.066110397946084393e-02 4.123042362002568018e-01 6.216894386812016338e-01 6.663240642368885025e-01 1.481855092346510503e+02 1.319836690669858870e+00 4.429696702409795961e+00 1.960609278840781826e+02 2.468407975400194410e+00 4.936815950800388819e+00 7.405223926200585005e+00 9.873631901600777638e+00 1.234203987700097471e+01 1.481044785240117001e+01 1.727885582780136176e+01 1.905814759375483334e+02 5.468597609847968499e+01 2.536393551821628378e+01 1.406884208406642323e+01 7.611747991670138269e+00 5.361809914626818774e+00 4.299500425853893582e+00
1.226740237691001656e-01 3.529711375212225000e-01 1.026655348047538219e-01 1.041426146010186876e-01 1.477079796264854031e-03 4.756451612903225823e-01 4.528539474061120673e-01 4.629555134469477973e-01 1.273037245016155623e+02 1.348110718358801030e+00 4.021603315930114775e+00 1.711662198276345634e+02 2.121728741693592379e+00 4.243457483387184759e+00 6.365186225080778470e+00 8.486914966774369518e+00 1.060864370846796412e+01 1.273037245016155694e+01 1.490746400280960771e+01 2.498815874441816050e+02 6.180627760206513699e+01 1.700963183940605461e+01 1.177803342635405137e+01 7.767426265952428466e+00 4.542817444706862773e+00 3.701526782096258739e+00
1.336513157894736736e-01 3.470723684210525462e-01 9.261513157894735171e-02 9.320723684210527327e-02 5.921052631578946693e-04 4.807236842105262475e-01 5.117731114396428804e-01 5.173532774488542874e-01 1.252698472683123185e+02 1.386798775383536464e+00 3.687020464513384610e+00 1.735005594204137935e+02 2.087830787805204924e+00 4.175661575610409848e+00 6.263492363415617881e+00 8.351323151220819696e+00 1.043915393902602773e+01 1.252698472683123576e+01 1.461481551463644024e+01 2.490149246976321251e+02 6.155810326412355948e+01 1.635293911800042110e+01 1.162593238365142767e+01 7.380571548275749905e+00 4.438613603248570350e+00 3.755804825371650502e+00
1.269969040247678205e-01 3.417027863777089003e-01 8.636222910216720394e-02 9.321981424148607920e-02 6.857585139318883929e-03 4.686996904024768873e-01 4.739314690635364480e-01 5.655330537871009478e-01 1.328581928789485573e+02 1.391970539655588812e+00 3.986183922567241300e+00 1.877193612323974321e+02 2.212707838846537989e+00 4.425415677693075978e+00 6.638123516539615743e+00 8.850831355386151955e+00 1.106353919423269261e+01 1.327624703307923149e+01 1.548895487192576503e+01 2.427562433924208278e+02 5.786704264735519132e+01 1.804235213147409667e+01 1.209220468218640931e+01 8.148236296289534053e+00 4.882187605887340354e+00 3.830171430495598273e+00
8.093466424682395355e-02 2.994555353901995898e-01 5.218693284936479909e-02 7.700544464609801465e-02 2.481851179673322250e-02 3.803901996370235850e-01 7.628688680248909559e-01 8.826436074589012470e-01 1.632996076146811788e+02 1.303918094752158918e+00 5.365690541375555789e+00 2.155276110130937468e+02 2.720896168758176525e+00 5.441792337516353051e+00 8.162688506274530909e+00 1.091262278755538873e+01 1.363351895631357102e+01 1.635441512507174622e+01 1.990481668679314353e+01 1.305604324640329992e+02 6.225495994989964998e+01 3.027380752186474666e+01 1.772772601745418442e+01 1.123908331544596884e+01 6.937410224558600902e+00 5.201519250222453650e+00
8.898293029871975901e-02 2.926102418207681133e-01 4.907539118065434858e-02 6.864153627311524175e-02 1.956614509246088970e-02 3.815931721194880111e-01 7.133167237453110765e-01 7.851528883972083150e-01 1.674459361476014863e+02 1.310888594185473544e+00 4.649305184267883639e+00 2.191157987535887628e+02 2.789716434242362375e+00 5.579432868484724750e+00 8.369149302727091566e+00 1.115886573696944950e+01 1.394858217121181809e+01 1.673829860545418313e+01 1.972006215201276547e+01 1.472403824575827400e+02 6.623680357750909309e+01 3.077307478137906216e+01 1.464737345621333020e+01 9.249942527785504964e+00 6.291281018100637112e+00 4.719734396076551874e+00
5.822807017543861485e-02 3.481929824561403874e-01 4.462280701754386958e-02 6.755263157894740578e-02 2.292982456140351191e-02 4.064210526315788496e-01 5.777448435127731097e-01 8.029110249132922483e-01 1.669927012554127543e+02 1.188496790424844685e+00 7.861780171252846117e+00 2.003954390235703897e+02 2.781756138605219419e+00 5.563512277210438839e+00 8.462789104578504862e+00 1.124454524318372250e+01 1.402630138178894370e+01 1.690948733096524137e+01 2.032234108901563019e+01 1.489338866866569902e+02 5.686103529470496909e+01 3.475290235569737263e+01 2.093972228341704067e+01 1.375778207829757527e+01 9.762974592649793948e+00 7.039149515203093621e+00
6.314404432132962597e-02 3.359072022160665139e-01 4.905124653739612733e-02 8.271468144044319404e-02 3.366343490304710834e-02 3.990512465373960427e-01 5.098414020007541181e-01 9.080626490923138228e-01 1.698863136963954332e+02 1.235331765023510053e+00 7.441759885520423445e+00 2.148517273248426704e+02 2.826935973819706849e+00 5.653871947639413698e+00 8.545323965022681989e+00 1.137225993884239017e+01 1.419919591266209302e+01 1.702959449035991213e+01 2.065226754915954999e+01 1.428140908990102957e+02 5.712282982704094536e+01 3.402107672785982828e+01 2.261836808172922630e+01 1.547835567420900382e+01 1.021283545400128467e+01 7.054395742560711113e+00
6.365131578947369473e-02 3.488377192982456410e-01 5.493421052631580065e-02 8.724780701754386580e-02 3.231359649122805822e-02 4.124890350877192802e-01 5.030623004123716546e-01 7.956087217499320241e-01 1.686713585456310227e+02 1.217417256738369868e+00 7.118506323657832091e+00 2.098966113898119659e+02 2.799198406048295951e+00 5.598396812096591901e+00 8.397595218144887852e+00 1.119679362419318380e+01 1.399599203024148153e+01 1.694528864601489815e+01 2.043601646956573248e+01 1.606850934114813469e+02 6.105324973499236307e+01 3.855330581290575509e+01 2.413452246180838756e+01 1.548035627203815956e+01 1.009661391286079279e+01 6.592596773131021770e+00
1.022017543859649463e-01 3.167456140350877192e-01 6.992105263157896711e-02 8.383333333333332915e-02 1.391228070175438633e-02 4.189473684210526239e-01 5.952324546531059246e-01 6.628311920616950514e-01 1.512060180687200273e+02 1.363711806443439034e+00 4.567553396191429194e+00 2.090223616606973565e+02 2.518280364121472381e+00 5.036560728242944762e+00 7.554841092364415367e+00 1.007312145648588952e+01 1.259140182060735924e+01 1.512400370280974826e+01 1.765879593483628085e+01 1.714800307076004913e+02 6.528751965093682941e+01 2.864439101288105505e+01 1.487735691377717195e+01 9.070132974044421204e+00 6.547945983462115649e+00 5.170516426112248709e+00
9.703947368421053654e-02 3.461430921052631171e-01 7.858552631578949454e-02 8.626644736842105365e-02 7.680921052631572987e-03 4.431825657894736814e-01 5.626876869977724960e-01 5.840287378163008247e-01 1.471475965526820460e+02 1.320880870392366235e+00 4.735052446621719646e+00 1.975667340431293724e+02 2.450203208967467905e+00 4.900406417934935810e+00 7.350609626902402383e+00 9.800812835869871620e+00 1.225101604483733730e+01 1.470121925380480477e+01 1.725295700497354900e+01 1.873440205062364328e+02 7.348377479989197525e+01 3.239650934891410117e+01 1.981509506804141552e+01 1.143233649559654630e+01 7.369645747615208187e+00 5.022523104776847269e+00
8.740890688259109198e-02 3.543454790823211686e-01 3.683535762483131776e-02 6.053306342780030713e-02 2.369770580296895468e-02 4.417543859649121774e-01 9.508788336221544180e-01 9.752608676774627838e-01 1.362150211382516432e+02 1.248984110486393684e+00 5.192565246680723945e+00 1.701219734530960750e+02 2.267398198332698733e+00 4.534796396665397467e+00 6.802194594998093535e+00 9.069592793330794933e+00 1.133699099166348923e+01 1.360438918999618707e+01 1.598001920330756676e+01 1.641071526014047208e+02 6.797214992143780421e+01 3.983957662859560145e+01 2.144460448247462381e+01 1.084258672413886693e+01 7.337176739517683011e+00 6.336604583292396065e+00
9.680098684210525217e-02 3.705509868421052455e-01 4.632401315789475005e-02 6.731085526315790102e-02 2.098684210526315791e-02 4.673519736842104422e-01 8.664784540119894185e-01 8.944524379496887612e-01 1.292112891647094557e+02 1.264487309580889951e+00 5.043573311997793240e+00 1.633385214804188479e+02 2.152076921872716042e+00 4.304153843745432084e+00 6.456230765618148126e+00 8.608307687490864168e+00 1.076038460936358199e+01 1.291246153123629625e+01 1.514645382342707336e+01 1.765228060990891379e+02 7.142993496870158765e+01 3.936291983315283716e+01 2.183085054376238077e+01 1.131099464462038107e+01 7.588966022598506278e+00 6.289785108753029874e+00
1.230462519936204452e-01 3.319696969696969702e-01 8.645933014354068025e-02 9.499999999999998723e-02 8.540669856459331272e-03 4.550159489633174292e-01 6.274611135734161627e-01 6.439192747896987923e-01 1.328494169234031688e+02 1.375138368783396015e+00 3.851982204272929700e+00 1.824158142900911628e+02 2.212563209719671242e+00 4.425126419439342484e+00 6.637689629159014615e+00 8.850252838878684969e+00 1.106281604859835888e+01 1.327537925831802923e+01 1.550808852696491691e+01 1.910934250927734013e+02 6.821152718876571441e+01 2.229423732476749009e+01 1.373338780466297848e+01 8.333086689539660696e+00 5.722645748365942531e+00 4.488637231413914463e+00
1.324182076813655851e-01 3.398719772403981376e-01 8.388335704125178538e-02 9.173541963015646727e-02 7.852062588904692303e-03 4.722901849217639447e-01 5.969130753906600750e-01 6.154317050388159460e-01 1.296100183428817729e+02 1.402462565057245092e+00 3.769034100113866081e+00 1.817205094993169894e+02 2.159062703011194184e+00 4.318125406022388368e+00 6.477188109033582109e+00 8.636250812044776737e+00 1.079531351505597137e+01 1.295437621806716422e+01 1.517219332765884943e+01 2.076059945195688670e+02 7.158320402279319694e+01 2.331811113190145335e+01 1.424643996607824192e+01 8.818988060135328766e+00 5.694380659372020759e+00 4.592516013456053869e+00
1.148844672657253069e-01 3.402567394094993536e-01 7.589216944801024933e-02 8.463414634146342042e-02 8.741976893453143327e-03 4.551412066752245078e-01 6.285763901119729713e-01 6.553270708299047120e-01 1.328805401191591500e+02 1.339869266381863433e+00 4.121760613694007702e+00 1.776574890925915327e+02 2.212803045034998473e+00 4.425606090069996945e+00 6.638409135104996750e+00 8.851212180139993890e+00 1.106401522517499636e+01 1.327681827020999350e+01 1.574355257403234454e+01 1.951371205779504123e+02 6.917790963921882508e+01 2.514913196629343162e+01 1.374989405776235607e+01 9.104932086026000349e+00 5.863586724801038486e+00 4.472191888932706583e+00
1.142105263157894707e-01 3.365570175438596934e-01 7.002923976608187162e-02 8.664473684210527438e-02 1.661549707602339582e-02 4.507675438596490669e-01 6.470237785792785079e-01 7.033767391618211962e-01 1.356771881426445816e+02 1.361140595546125986e+00 4.392168045174074109e+00 1.858288731114166410e+02 2.255924033279767649e+00 4.511848066559535297e+00 6.767772099839304722e+00 9.023696133119070595e+00 1.127962016639883913e+01 1.353554419967860944e+01 1.615550056045167082e+01 1.831263129352078636e+02 7.397891336368918758e+01 2.935624289362097628e+01 1.545525270323958011e+01 1.005731083452656804e+01 6.954207414504467444e+00 5.111956119160967482e+00
1.103266787658802317e-01 3.389110707803991707e-01 8.144283121597098440e-02 9.117059891107077985e-02 9.727767695099819728e-03 4.492377495462795411e-01 6.014812093548809191e-01 6.421447373359510102e-01 1.378567721046248096e+02 1.331672359551824281e+00 4.258906135537485760e+00 1.837085017903668245e+02 2.297529807447819650e+00 4.595059614895639299e+00 6.892589422343459837e+00 9.190119229791278599e+00 1.148764903723910180e+01 1.378517884468691967e+01 1.632897132235040161e+01 1.982775843520988985e+02 6.603410390676393149e+01 2.319082964265111357e+01 1.368538271772617776e+01 9.031186232469357478e+00 5.940051617230062142e+00 4.288546886204098740e+00
1.053118908382066343e-01 3.237329434697855390e-01 6.645224171539959590e-02 8.946393762183238452e-02 2.301169590643275045e-02 4.290448343079921734e-01 6.770269267823759707e-01 7.879176576478317262e-01 1.508258558307287274e+02 1.356091012613208191e+00 4.346815958482012299e+00 2.083051356496222581e+02 2.512810864176959758e+00 5.025621728353919515e+00 7.538432592530882381e+00 1.005124345670783903e+01 1.256405432088480190e+01 1.510157484653940330e+01 1.781232109171810052e+01 1.565166621972275891e+02 7.152445439565656216e+01 2.947530781488375595e+01 1.609021761927502681e+01 1.023805943280445518e+01 7.176210736454886607e+00 5.141909041662183988e+00
1.235603715170278533e-01 3.042492260061919751e-01 8.918730650154799156e-02 9.372291021671827482e-02 4.535603715170281533e-03 4.278095975232198978e-01 5.644142160021392574e-01 5.678591620174364696e-01 1.408545015073253523e+02 1.408207850159166163e+00 3.546032907694742775e+00 1.981350797096338567e+02 2.346640242684382205e+00 4.693280485368764410e+00 7.039920728053146171e+00 9.386560970737528820e+00 1.173320121342190880e+01 1.407984145610629234e+01 1.642648169879067410e+01 2.035670407460938236e+02 5.387235598336793885e+01 1.673146694293079761e+01 1.121312044255832419e+01 6.517021632190893143e+00 4.676228327559918796e+00 3.532176674911173819e+00
6.262038073908177127e-02 3.152631578947369118e-01 3.659014557670774159e-02 6.105263157894736531e-02 2.446248600223964800e-02 3.778835386338185165e-01 8.915095045343448543e-01 9.437100224654736413e-01 1.594249775397219366e+02 1.200106840375101624e+00 6.048879731690482764e+00 1.915607536045628478e+02 2.654457843707505038e+00 5.308915687415010076e+00 7.963373531122512894e+00 1.061783137483002015e+01 1.327228921853752475e+01 1.592674706224502579e+01 1.859502985445459800e+01 1.308887451388352758e+02 5.872688715031832629e+01 3.999676932526817552e+01 2.360915515642595253e+01 1.124334205430185207e+01 6.001895440243388613e+00 5.996862719081939908e+00
6.099910793933992215e-02 3.083942908117751625e-01 3.566458519179305231e-02 6.229705619982155856e-02 2.663247100802856177e-02 3.693933987511149875e-01 8.891360166016925026e-01 9.559236997349231935e-01 1.628592278469498353e+02 1.198965413263343605e+00 6.067978483009706991e+00 1.954365816712442552e+02 2.713295107035228693e+00 5.426590214070457385e+00 8.139885321105683857e+00 1.085318042814091477e+01 1.356647553517613858e+01 1.633448369603235761e+01 1.904777880306759386e+01 1.254636538333289906e+02 5.710314335330634350e+01 3.930329658937606752e+01 2.326686677100872913e+01 1.081046641360542360e+01 5.886138488620307641e+00 5.976926862395181672e+00
5.962142197599259313e-02 3.209187442289935799e-01 3.604339796860572820e-02 6.356879039704524392e-02 2.752539242843954001e-02 3.805401662049860967e-01 8.869893860356097282e-01 9.484039884797672570e-01 1.582706148544966140e+02 1.186403338705774635e+00 6.385762949474861117e+00 1.878705319575237525e+02 2.635679012162146062e+00 5.271358024324292124e+00 7.907037036486437742e+00 1.054271604864858425e+01 1.317839506081073253e+01 1.581407407297287548e+01 1.861720527054015051e+01 1.288965730196212292e+02 5.902246200408487908e+01 4.157214958797452908e+01 2.515543769886760117e+01 1.246328107223779114e+01 6.235883768113363423e+00 5.913631508536150605e+00
5.969990766389663556e-02 3.177285318559557314e-01 3.552631578947371138e-02 6.261311172668512781e-02 2.708679593721145112e-02 3.774284395198523323e-01 8.985517801697894269e-01 9.623376953195993400e-01 1.596486515278741649e+02 1.189316645635587255e+00 6.330703691507014064e+00 1.901069555036628458e+02 2.659749524275874411e+00 5.319499048551748821e+00 7.979248572827624564e+00 1.063899809710349764e+01 1.329874762137937161e+01 1.595849714565524913e+01 1.911340357586809446e+01 1.275861984437082270e+02 5.795871924220812588e+01 4.102137506496850961e+01 2.484523356228505975e+01 1.224547164424315682e+01 6.191769686184061428e+00 5.902031491376688699e+00
5.972727272727274689e-02 3.089473684210525817e-01 3.644976076555023897e-02 6.304306220095691471e-02 2.659330143540669655e-02 3.686746411483254326e-01 8.824897858839502174e-01 9.434066730225996178e-01 1.646851514490788304e+02 1.197020336726949408e+00 6.177903993932701177e+00 1.980214617123892538e+02 2.743571886607040433e+00 5.487143773214080866e+00 8.230715659821120411e+00 1.097428754642816173e+01 1.371785943303520838e+01 1.646143131964224082e+01 1.937892386294506508e+01 1.249084300716608169e+02 5.805567173797765435e+01 3.968646365539798637e+01 2.366498098087597768e+01 1.143369539989611816e+01 5.986744275762036160e+00 5.864932875830947800e+00
6.035406698564595857e-02 3.271531100478469734e-01 3.744976076555023292e-02 6.519617224880380757e-02 2.774641148325360240e-02 3.875071770334927446e-01 8.750829774463786404e-01 9.346644832984649653e-01 1.552391134302677926e+02 1.185057988794249395e+00 6.425588048315321821e+00 1.840428269660182252e+02 2.587318557171129907e+00 5.174637114342259814e+00 7.761955671513389277e+00 1.034927422868451963e+01 1.293659278585564820e+01 1.552391134302677855e+01 1.871125209356089059e+01 1.325050325739126151e+02 6.001213552697834075e+01 4.117071553507794590e+01 2.551277261855556588e+01 1.296300223485437897e+01 6.414408379798719473e+00 5.836392398660088077e+00
6.008133971291867298e-02 3.238038277511963714e-01 3.527272727272730973e-02 6.382775119617223325e-02 2.855502392344499291e-02 3.838851674641147738e-01 9.005928702089747162e-01 9.624358861779291896e-01 1.568779644892237286e+02 1.186594309234561218e+00 6.395485774193912398e+00 1.863262927093474275e+02 2.613452103942788707e+00 5.226904207885577414e+00 7.840356311828364788e+00 1.045380841577115483e+01 1.306726051971393865e+01 1.568071262365672958e+01 1.843170807189391880e+01 1.300092097808858398e+02 5.907680401933705383e+01 4.179147728036932108e+01 2.559799960378808947e+01 1.281643188447051962e+01 6.343307009958230935e+00 5.891062189051153197e+00
9.171539961013645825e-02 3.837719298245614308e-01 5.625730994152049885e-02 7.756335282651072305e-02 2.130604288499025889e-02 4.754873294346977919e-01 6.535970839935385523e-01 7.433792866886386186e-01 1.376878314043692342e+02 1.279173631990684568e+00 5.801219134658554211e+00 1.821162143992139875e+02 2.290769400564661051e+00 4.581538801129322103e+00 6.872308201693983598e+00 9.163077602258644205e+00 1.146214197192454876e+01 1.383199985313714286e+01 1.628188818768279944e+01 1.607405557683233042e+02 7.846548831569225513e+01 4.436977337876131600e+01 2.606203470650832443e+01 1.650683571637007674e+01 1.101393158340010814e+01 6.815157830294922725e+00
1.031863442389758523e-01 3.925320056899004317e-01 5.334281650071124453e-02 6.974395448079658000e-02 1.640113798008534587e-02 4.957183499288762007e-01 7.258319728767655965e-01 7.959712928747550986e-01 1.230945620617544733e+02 1.267181443183980738e+00 5.300602742754342955e+00 1.555650725845283375e+02 2.047955120564416198e+00 4.095910241128832396e+00 6.143865361693245930e+00 8.191820482257664793e+00 1.023977560282208010e+01 1.237785054127400386e+01 1.481265325859991933e+01 1.896153393216544600e+02 8.184305347930926189e+01 4.096146385401399925e+01 2.082695859861223653e+01 1.335150352336567892e+01 9.109897496600211753e+00 6.243379366033976474e+00
1.003480475382003412e-01 3.708573853989812208e-01 6.380305602716467017e-02 7.910865874363326444e-02 1.530560271646858907e-02 4.712054329371814787e-01 5.829691079716697866e-01 6.178286965343877668e-01 1.347582657014804397e+02 1.286040463680818924e+00 5.113265111058602486e+00 1.743718207064456749e+02 2.244920781675249888e+00 4.489841563350499776e+00 6.734762345025750108e+00 8.979683126700999551e+00 1.131547169574562339e+01 1.359006264406831299e+01 1.592029715389943867e+01 2.030647623559134161e+02 8.338525958110683689e+01 3.726857225149070274e+01 1.902541403207821347e+01 1.149412590230511810e+01 7.614416530408194994e+00 5.677171744135302234e+00
1.056715063520871356e-01 3.950000000000000178e-01 8.411070780399274027e-02 8.937386569872958486e-02 5.263157894736842854e-03 5.006715063520870146e-01 6.161048034379044136e-01 6.290421617850507907e-01 1.217762581479793766e+02 1.275729469136741123e+00 5.127729933671904661e+00 1.555600608752008611e+02 2.027914782898762258e+00 4.055829565797524516e+00 6.083744348696285442e+00 8.111659131595049033e+00 1.013957391449380552e+01 1.223166358007925147e+01 1.432790333361962354e+01 2.209814733477820710e+02 8.181676574364455234e+01 3.399096830800652214e+01 1.674086102951395461e+01 1.078137345749624032e+01 7.410141453772339126e+00 5.394033360902693808e+00
1.014309210526315591e-01 3.801480263157894779e-01 8.080592105263158242e-02 9.219572368421052877e-02 1.138980263157894808e-02 4.815789473684209954e-01 6.193612841422735382e-01 6.687425453634909811e-01 1.320019745177903587e+02 1.283989884189511210e+00 5.228054869386586034e+00 1.715834556798427286e+02 2.195709324437295162e+00 4.391418648874590325e+00 6.587127973311885931e+00 8.782837297749180649e+00 1.097854662218647626e+01 1.319172217857533269e+01 1.545322097669683714e+01 1.913494539310395339e+02 8.305016225606512137e+01 3.621822959810072007e+01 1.818547732089686519e+01 1.161410993499776723e+01 8.037062077324604203e+00 5.935970169308888877e+00
1.004545454545454630e-01 3.610526315789472918e-01 4.331738437001595582e-02 6.169856459330144011e-02 1.838118022328548776e-02 4.615071770334927548e-01 8.090990188249819193e-01 8.921921783959313457e-01 1.375437697426005741e+02 1.292344254969372219e+00 4.953096094176275166e+00 1.789123784139361248e+02 2.288421905728708516e+00 4.576843811457417033e+00 6.865265717186123773e+00 9.153687622914834066e+00 1.144210952864354347e+01 1.373053143437224755e+01 1.624272044802956927e+01 1.795395912763116826e+02 6.975847356415812328e+01 3.690795112357726282e+01 1.995668037604801981e+01 1.135692644573197718e+01 7.467779179385869881e+00 5.781523710475849676e+00
9.114265927977839576e-02 3.893005540166204481e-01 5.031855955678671971e-02 7.677977839335180243e-02 2.646121883656509313e-02 4.804432132963989410e-01 7.904141622618281460e-01 8.684248044638124275e-01 1.315901377478149357e+02 1.245555718075353369e+00 5.586456955571444283e+00 1.649730987754886939e+02 2.191135065006612148e+00 4.382270130013224296e+00 6.573405195019835112e+00 8.764540260026448593e+00 1.095567532503305763e+01 1.314681039003967022e+01 1.580748333084646795e+01 1.795041892145270310e+02 7.880171587594720961e+01 4.200694298169005236e+01 2.400647929389853630e+01 1.450885864082740184e+01 8.198493068980448939e+00 6.030089627020092102e+00
9.892787524366469798e-02 3.491520467836256580e-01 5.564327485380119592e-02 8.334307992202727444e-02 2.769980506822611668e-02 4.480799220272904670e-01 6.758336036917638179e-01 8.413755611213518115e-01 1.422196223214923236e+02 1.293899433548588718e+00 5.031340549964401276e+00 1.852309242646308860e+02 2.368173530318980369e+00 4.736347060637960737e+00 7.104520590956940218e+00 9.472694121275921475e+00 1.184086765159490362e+01 1.425349930578105528e+01 1.709969988666623664e+01 1.635948487827337487e+02 7.381854837708776529e+01 3.736605383384835477e+01 2.074093754975081083e+01 1.210511889504947902e+01 7.196074594486959519e+00 5.852072941899556291e+00
1.152878289473684148e-01 3.617351973684211908e-01 7.762335526315790324e-02 8.825657894736842202e-02 1.063322368421052398e-02 4.770230263157894113e-01 5.737269842420671395e-01 6.102412246843497146e-01 1.310749041580805851e+02 1.325289630771281368e+00 4.320934497840399402e+00 1.742711094832366996e+02 2.180936137028715471e+00 4.361872274057430943e+00 6.542808411086149079e+00 8.723744548114861885e+00 1.090468068514358002e+01 1.308561682217229816e+01 1.547375614524375997e+01 2.154692852093441502e+02 7.590251498935785435e+01 2.906263401898207022e+01 1.446405805447194304e+01 1.014700337423529675e+01 6.415372602917831735e+00 4.633664936888989949e+00
9.693256578947367919e-02 3.889555921052631482e-01 6.114309210526318317e-02 7.733552631578950731e-02 1.619243421052632068e-02 4.858881578947367719e-01 7.198050691840723880e-01 7.519672080565251715e-01 1.249053367336390892e+02 1.253681309182477444e+00 5.279722387713925436e+00 1.565502278503024343e+02 2.080268461147609660e+00 4.160536922295219320e+00 6.240805383442829424e+00 8.321073844590438640e+00 1.040134230573804786e+01 1.251307529777810323e+01 1.480521194929598217e+01 1.960584823868043145e+02 7.743265553047233141e+01 3.760621181830206439e+01 2.212071577167522562e+01 1.284210437442077257e+01 7.754738356520596732e+00 5.890914181720055431e+00
1.128560371517028094e-01 2.303947368421052633e-01 1.006191950464396245e-01 1.018808049535603749e-01 1.261609907120744096e-03 3.432507739938081004e-01 3.850607271238432605e-01 3.888211710322308501e-01 1.759362777544050402e+02 1.499839224431051221e+00 3.080412701489912752e+00 2.646740281698615149e+02 2.929053978513577405e+00 5.858107957027154811e+00 8.787161935540732216e+00 1.171621591405430962e+01 1.464526989256788525e+01 1.758152381348191895e+01 2.059084381653397244e+01 1.690524105591583464e+02 3.072108481791388712e+01 1.276277143629733857e+01 7.583037952344130694e+00 4.406274534421634748e+00 3.279604305558967425e+00 2.376700707087326503e+00
1.069799498746867167e-01 2.896616541353383978e-01 1.050626566416040103e-01 1.084711779448621627e-01 3.408521303258146319e-03 3.966416040100251839e-01 4.273461053193525760e-01 4.404273178492638108e-01 1.553289157720136018e+02 1.392420760518610079e+00 3.945216619215354381e+00 2.170735937241478837e+02 2.587246395471487936e+00 5.174492790942975873e+00 7.761739186414463809e+00 1.034898558188595175e+01 1.293623197735744412e+01 1.552347837282892762e+01 1.811072476830041822e+01 1.917311003661320115e+02 4.277296442302077395e+01 1.823863016490896527e+01 1.145078708713207583e+01 6.520563656299608546e+00 5.000222667433927626e+00 3.392553514538341641e+00
1.108092105263158295e-01 2.562499999999999778e-01 8.198026315789473661e-02 8.663157894736840670e-02 4.651315789473685694e-03 3.670592105263158489e-01 5.069305566755532011e-01 5.231219245537310769e-01 1.659979718749121389e+02 1.442108368574350319e+00 3.473431890950474443e+00 2.393770016045822047e+02 2.765479968757952101e+00 5.530959937515904201e+00 8.296439906273855414e+00 1.106191987503180840e+01 1.382739984378975429e+01 1.659287981254771083e+01 1.940059499897947148e+01 1.757966912474854269e+02 4.451228399463114727e+01 1.436450362335216369e+01 9.110281891013887190e+00 5.575493430464501188e+00 3.952210134783157969e+00 2.935099402737074481e+00
1.249634502923976515e-01 3.295760233918128002e-01 7.966374269005849218e-02 8.388157894736841813e-02 4.217836257309938094e-03 4.545394736842106598e-01 6.497793984624178343e-01 6.535280509562828577e-01 1.324810381813049958e+02 1.382865135075131535e+00 3.725284324275109249e+00 1.831601455497961695e+02 2.208017303021749811e+00 4.416034606043499622e+00 6.624051909065250321e+00 8.832069212086999244e+00 1.104008651510875261e+01 1.324810381813050064e+01 1.545612112115225045e+01 2.094760439189606132e+02 5.752080627267645951e+01 2.108801746769856678e+01 1.297353896208442414e+01 7.249947818219185436e+00 5.447474898317756775e+00 4.194188770187246007e+00
1.255087719298245696e-01 3.561666666666666869e-01 7.906140350877192968e-02 8.498245614035088158e-02 5.921052631578944091e-03 4.816754385964912566e-01 6.844220819846975612e-01 6.900921581527723614e-01 1.249412337080035371e+02 1.355010547356670259e+00 3.904480242070254459e+00 1.692746304778099216e+02 2.082167274628885512e+00 4.164334549257771023e+00 6.246501823886657867e+00 8.328669098515542046e+00 1.041083637314442889e+01 1.249300364777331573e+01 1.457517092240219547e+01 2.186269932984866102e+02 6.429501395052567148e+01 2.470949930807025652e+01 1.386982057341112551e+01 8.110140525496015940e+00 6.045776542396184006e+00 4.690793454375384641e+00
1.303989813242784623e-01 3.740747028862478896e-01 7.629881154499151830e-02 8.528862478777587963e-02 8.989813242784378683e-03 5.044736842105264074e-01 6.423928405940065867e-01 6.518862879607215666e-01 1.209225452228528894e+02 1.361871250233247732e+00 4.026086476303202488e+00 1.651653616992852847e+02 2.013171744870787983e+00 4.026343489741575965e+00 6.039515234612365724e+00 8.052686979483151930e+00 1.006585872435394258e+01 1.207903046922473145e+01 1.409556418017328028e+01 2.240345101403794104e+02 7.529162551751737453e+01 2.895800250537874021e+01 1.585238053444052575e+01 9.766057693130230533e+00 6.388200102299219196e+00 5.114140541532602668e+00
1.323391812865497008e-01 3.413304093567251507e-01 1.000657894736842191e-01 1.022807017543859581e-01 2.214912280701754679e-03 4.736695906432748515e-01 4.524010192775109740e-01 4.557542370361031825e-01 1.281566569463077769e+02 1.399124678776912045e+00 3.631005858207367432e+00 1.803687893004592979e+02 2.135661681606486617e+00 4.271323363212973234e+00 6.406985044819457187e+00 8.542646726425946468e+00 1.067830840803243220e+01 1.281397008963891437e+01 1.494963177124540010e+01 2.399899871523484762e+02 6.233512656738621871e+01 1.679503777700677958e+01 1.208815078660273912e+01 7.261014220561388122e+00 4.699577812202818450e+00 3.849289142355332594e+00
1.337593984962406335e-01 3.419642857142856651e-01 8.652255639097743145e-02 9.271616541353384922e-02 6.193609022556395213e-03 4.757236842105262986e-01 6.180579448524454733e-01 6.284820960610646434e-01 1.282333519197447060e+02 1.403203133807326752e+00 3.637726895817877892e+00 1.809460457254402570e+02 2.134292546392384970e+00 4.268585092784769941e+00 6.402877639177155800e+00 8.537170185569539882e+00 1.067146273196192574e+01 1.280575527835431160e+01 1.494004782474669568e+01 2.190017960818666154e+02 6.417743372177490357e+01 2.192049741426693998e+01 1.285870416144276795e+01 8.263495210954069137e+00 5.404835608191974394e+00 4.312457646539971101e+00
1.310751879699248168e-01 3.637142857142857677e-01 9.234586466165414786e-02 9.621052631578948244e-02 3.864661654135338048e-03 4.947894736842105012e-01 5.527118680698415165e-01 5.581544080360215654e-01 1.225814234001130956e+02 1.371022879093621638e+00 3.882701078211736601e+00 1.687674366167715334e+02 2.042747804179530391e+00 4.085495608359060782e+00 6.128243412538591173e+00 8.170991216718121564e+00 1.021373902089765373e+01 1.225648682507718235e+01 1.429923462925671096e+01 2.413764401939677953e+02 6.903546485055532855e+01 2.127027070116578500e+01 1.269803305526486881e+01 8.767435271306336375e+00 5.365936880674459175e+00 4.140190561608720898e+00
1.339943609022556659e-01 3.432894736842104777e-01 9.302631578947369306e-02 9.369360902255639834e-02 6.672932330827072243e-04 4.772838345864660603e-01 5.397490774074598097e-01 5.406113221449330153e-01 1.270382406657126779e+02 1.401539211284568154e+00 3.679006904893765473e+00 1.782198100613702536e+02 2.116701971350585243e+00 4.233403942701170486e+00 6.350105914051757061e+00 8.466807885402340972e+00 1.058350985675292932e+01 1.270021182810351412e+01 1.481691379945410070e+01 2.390740976341888313e+02 6.151989598759701039e+01 1.836703037716818088e+01 1.170809600751142554e+01 7.476057437684625384e+00 4.814080708263271724e+00 3.784748797881431592e+00
1.312074303405572628e-01 3.002167182662538458e-01 8.178018575851395133e-02 8.725232198142415796e-02 5.472136222910220504e-03 4.314241486068111642e-01 5.201996955302992109e-01 5.306790601344271163e-01 1.418834866919672493e+02 1.446141860633165965e+00 3.422254971083241060e+00 2.051674763868050491e+02 2.360829939630293417e+00 4.721659879260586834e+00 7.082489818890881139e+00 9.443319758521173668e+00 1.180414969815146797e+01 1.416497963778176228e+01 1.668926104431396240e+01 2.045692819050918274e+02 5.814809868832474393e+01 1.845784154754915107e+01 1.164106763300343239e+01 7.009347968468653711e+00 4.875176911772888033e+00 3.718506945908585770e+00
1.376315789473684381e-01 3.582142857142857628e-01 8.253759398496240962e-02 8.813909774436090583e-02 5.601503759398497942e-03 4.958458646616543120e-01 5.522579554786024580e-01 5.655223697872694411e-01 1.229020776954298526e+02 1.398081205794342585e+00 3.966889649730452216e+00 1.720524324421596987e+02 2.047331609828393351e+00 4.094663219656786701e+00 6.141994829485179608e+00 8.189326439313573403e+00 1.023665804914196364e+01 1.228398965897035922e+01 1.445461467412546952e+01 2.364299071696284216e+02 6.737651311248359320e+01 2.410589469981753652e+01 1.671090428528426131e+01 1.042406774501088940e+01 6.864156384053315740e+00 4.905946282052889629e+00
9.940526315789473266e-02 1.785210526315790247e-01 8.192105263157895001e-02 8.447368421052629806e-02 2.552631578947367995e-03 2.779263157894737435e-01 4.442923459159651145e-01 4.498985555321442509e-01 2.178416281000483252e+02 1.563399364267783032e+00 2.867212913384246775e+00 3.396816289023689706e+02 3.603105334305736207e+00 7.206210668611472414e+00 1.080931600291721040e+01 1.441242133722294483e+01 1.801552667152868636e+01 2.161863200583442080e+01 2.522173734014016233e+01 1.301740593816046498e+02 2.460721088175491644e+01 1.167869493253877877e+01 6.091051553524734707e+00 3.984038181313429572e+00 2.839676736035662064e+00 2.018865551289297677e+00
9.872631578947370368e-02 2.009210526315789447e-01 8.297368421052635223e-02 8.547894736842107100e-02 2.505263157894736109e-03 2.996473684210527733e-01 4.465680742463895014e-01 4.534418973181024159e-01 2.032189799767180034e+02 1.513334367143523984e+00 3.132045568497605181e+00 3.086656619941990130e+02 3.369024061176426166e+00 6.738048122352852332e+00 1.010707218352927583e+01 1.347609624470570466e+01 1.688552434628616794e+01 2.025454840746259322e+01 2.362357246863901850e+01 1.374850570136398460e+02 2.885474983572426311e+01 1.434771893374486851e+01 7.552547145589252331e+00 4.702881407884629716e+00 3.348736395575051983e+00 2.333726698039529701e+00
9.513157894736841425e-02 1.905811403508772262e-01 7.784539473684211341e-02 8.123903508771930515e-02 3.393640350877193471e-03 2.857127192982455433e-01 5.177627913939596427e-01 5.274524501488635497e-01 2.125150482488703574e+02 1.511955419420241808e+00 3.129614807719935943e+00 3.210365468231287309e+02 3.524074944135234588e+00 7.048149888270469177e+00 1.057222483240570021e+01 1.409629977654093835e+01 1.762037472067616406e+01 2.114444966481140042e+01 2.466852460894663679e+01 1.295266688733850913e+02 2.776521053873137035e+01 1.315894629494343349e+01 6.870409393813527110e+00 4.338941535885970424e+00 3.128129888341838249e+00 2.355520879230188047e+00
9.608421052631578585e-02 1.962315789473684235e-01 7.898421052631578176e-02 8.392631578947369608e-02 4.942105263157895237e-03 2.923157894736843065e-01 5.120843487231401259e-01 5.405485748639273780e-01 2.084074923594124584e+02 1.509254788044133599e+00 3.227580899251895730e+00 3.143880552715920089e+02 3.450436906259038761e+00 6.900873812518077521e+00 1.035131071877711939e+01 1.380174762503615504e+01 1.725581429536052269e+01 2.070988096568490988e+01 2.416394763600927575e+01 1.307244838482700118e+02 3.027824626669488595e+01 1.418584838039060969e+01 7.152135709676172404e+00 4.678862258246618389e+00 3.284602001778877511e+00 2.419569929771894223e+00
9.385041551246536828e-02 1.872668513388734968e-01 8.203139427516159543e-02 8.351800554016620970e-02 1.486611265004616003e-03 2.811172668513388095e-01 4.628494790154019656e-01 4.667253185123685366e-01 2.142967442400105256e+02 1.511342160622801023e+00 3.104158385941733211e+00 3.236625758471927838e+02 3.543421954419908815e+00 7.086843908839817630e+00 1.063026586325973177e+01 1.417368781767963526e+01 1.771710977209954407e+01 2.126053172651946355e+01 2.484157209344236605e+01 1.335244863272997407e+02 2.592664017083915340e+01 1.130769323979029828e+01 6.176462682393134784e+00 3.960646705697131065e+00 2.805873849880755166e+00 2.057868990822097732e+00
9.095942982456141357e-02 2.044243421052631682e-01 8.814144736842106920e-02 8.994517543859648079e-02 1.803728070175438479e-03 2.953837719298245124e-01 4.809426069358881950e-01 4.875489396598227665e-01 2.056659578071694341e+02 1.460907053021337276e+00 3.340626418481367210e+00 3.013643201876320745e+02 3.408389495223278942e+00 6.816778990446557884e+00 1.022516848566983150e+01 1.363355798089311577e+01 1.704194747611639116e+01 2.045033697133966299e+01 2.390338957908564055e+01 1.359744292292571402e+02 3.068433858982675488e+01 1.234183848747761658e+01 7.095979028347102258e+00 4.263738621656240291e+00 3.190954761283907093e+00 2.287244792763456491e+00
8.966599190283398857e-02 1.909615384615384881e-01 7.800101214574899078e-02 8.521761133603240890e-02 7.216599190283403374e-03 2.806275303643724905e-01 5.112397008982544344e-01 5.346557507196881831e-01 2.179791847908193745e+02 1.491534197822355079e+00 3.310198806967641794e+00 3.251235353620515980e+02 3.606115308332447533e+00 7.212230616664895066e+00 1.081834592499733816e+01 1.442446123332979013e+01 1.803057654166223500e+01 2.163669184999467632e+01 2.524280715832713540e+01 1.248325567162261365e+02 2.921847769826352703e+01 1.412150138716956072e+01 7.125680284099146000e+00 4.655370900355805475e+00 3.343022333065187368e+00 2.447490763167039951e+00
8.692982456140352365e-02 1.969736842105263841e-01 8.015350877192982393e-02 8.653508771929825649e-02 6.381578947368423023e-03 2.839035087719299355e-01 5.132644970699834497e-01 5.273477927129764931e-01 2.123394560361146830e+02 1.456446301594046533e+00 3.388460157069234757e+00 3.097044060717298066e+02 3.511265649493096053e+00 7.022531298986192105e+00 1.053379694847928860e+01 1.404506259797238421e+01 1.755632824746547627e+01 2.106759389695857720e+01 2.457885954645166748e+01 1.289363222932393001e+02 3.040192529502895624e+01 1.363126800473092537e+01 7.022529339153731343e+00 4.437015970266587672e+00 3.329675489540873112e+00 2.344099851740946594e+00
1.190497076023391970e-01 2.824342105263158986e-01 1.060233918128655195e-01 1.064327485380116706e-01 4.093567251461987730e-04 4.014839181286549152e-01 3.986811418623816827e-01 3.990401573669842827e-01 1.502283733913271817e+02 1.423842433785945660e+00 3.426693384724224689e+00 2.137032112565985074e+02 2.502258220591534243e+00 5.004516441183068487e+00 7.506774661774604063e+00 1.000903288236613697e+01 1.251129110295767255e+01 1.501354932354920813e+01 1.758598298273722804e+01 2.048299822125698313e+02 4.329760499756977765e+01 1.304433306737610820e+01 9.395853237430866756e+00 5.166569432783959748e+00 3.865372216688697904e+00 2.771551979943021937e+00
1.073684210526315713e-01 3.006616541353384631e-01 1.060375939849624166e-01 1.061503759398496477e-01 1.127819548872181413e-04 4.080300751879700205e-01 4.142047010644491767e-01 4.142528783354429978e-01 1.476052125478888115e+02 1.357768691256291849e+00 3.874529134661389040e+00 2.001717909339366486e+02 2.459213086870089882e+00 4.918426173740179763e+00 7.377639260610271421e+00 9.836852347480359526e+00 1.229606543435044408e+01 1.475527852122054284e+01 1.721449160809063272e+01 2.110330855817146301e+02 4.943973299865838555e+01 1.376528404592788135e+01 9.778949503957544920e+00 5.775917149650233284e+00 3.952106968521447161e+00 3.017227739348752547e+00
1.180143540669856828e-01 2.805901116427431119e-01 1.078787878787878934e-01 1.081658692185008125e-01 2.870813397129181265e-04 3.986044657097289057e-01 3.873202900708502261e-01 3.877066363138935712e-01 1.516782594506881026e+02 1.423453501674800892e+00 3.408832785079320082e+00 2.160323264736409214e+02 2.525641674931660141e+00 5.051283349863320282e+00 7.576925024794982200e+00 1.010256669972664056e+01 1.262820837465830337e+01 1.515385004958996440e+01 1.767949172452162188e+01 2.048942254995558017e+02 4.183875172206387560e+01 1.263106219886552140e+01 9.158516054327661138e+00 5.138298792450735064e+00 3.660462421109940578e+00 2.783175762011880217e+00
1.102916073968705502e-01 2.785490753911805673e-01 1.155547652916073947e-01 1.155832147937411319e-01 2.844950213371268347e-05 3.888406827880511729e-01 3.597928964476376779e-01 3.598152493363917515e-01 1.557808615823940954e+02 1.404326857404353257e+00 3.616722814802087793e+00 2.195668512212644146e+02 2.594885784884281232e+00 5.189771569768562465e+00 7.784657354652842365e+00 1.037954313953712493e+01 1.297442892442140305e+01 1.556931470930568473e+01 1.817113939714940685e+01 2.015084247730552818e+02 4.010947467296930569e+01 1.300384298694818952e+01 8.768671373221588183e+00 4.971427859551891260e+00 3.620714306452710307e+00 2.688365265918155167e+00
1.119969040247678072e-01 2.773761609907119952e-01 1.175309597523219729e-01 1.185371517027864058e-01 1.006191950464396453e-03 3.893730650154798578e-01 3.247053903612605597e-01 3.262425394038978022e-01 1.548633161824232616e+02 1.406200275231183516e+00 3.516589330989202011e+00 2.177352280432768339e+02 2.578480216110835332e+00 5.156960432221670665e+00 7.735440648332505553e+00 1.031392086444334133e+01 1.289240108055417267e+01 1.547088129666501111e+01 1.804936151277584599e+01 2.038397248084636431e+02 3.871323011756160071e+01 1.236271062000701626e+01 8.701359539230990592e+00 4.814222628453210362e+00 3.594157727461739782e+00 2.561512073956397462e+00
1.123172514619882878e-01 2.828070175438596179e-01 1.119225146198830345e-01 1.119517543859649134e-01 2.923976608187136997e-05 3.951242690058479612e-01 3.951980537492645329e-01 3.952101865278515591e-01 1.529205337697313780e+02 1.398465969900720696e+00 3.611659044418044306e+00 2.134610740297274560e+02 2.548675562828856656e+00 5.097351125657713311e+00 7.646026688486571743e+00 1.019470225131542662e+01 1.274337781414428505e+01 1.529205337697314349e+01 1.784072893980200192e+01 2.015737481792681081e+02 4.187188748320428999e+01 1.335543502997604648e+01 9.031695011227057535e+00 5.163189453225934145e+00 3.756602299371115006e+00 2.746401270286782381e+00
1.139327485380117189e-01 2.828947368421053099e-01 1.176973684210526477e-01 1.186038011695906835e-01 9.064327485380117237e-04 3.968274853801168622e-01 3.703843618146553385e-01 3.712340900940298560e-01 1.522244325284543152e+02 1.408807815503524630e+00 3.551807546561610351e+00 2.147044657869590196e+02 2.536643993855820955e+00 5.073287987711641911e+00 7.609931981567462422e+00 1.014657597542328382e+01 1.268321996927910433e+01 1.521986396313492484e+01 1.775650795699074536e+01 2.019260453977190934e+02 3.965662533177770399e+01 1.411295108585204083e+01 9.179787843297988914e+00 5.165317101689289814e+00 3.779837089581907339e+00 2.801899810630822607e+00
1.263026315789474163e-01 3.354342105263158347e-01 7.254605263157895556e-02 8.425657894736844622e-02 1.171052631578946984e-02 4.617368421052631677e-01 6.293967780082209140e-01 6.754550763508002653e-01 1.327123027736352583e+02 1.386924419091515981e+00 3.891162908699735912e+00 1.839201661406372637e+02 2.210924079639656537e+00 4.421848159279313073e+00 6.632772238918970054e+00 8.843696318558626146e+00 1.105462039819828490e+01 1.326554447783794011e+01 1.555155562276429748e+01 1.896044477547266069e+02 7.364170842891408597e+01 2.587819326272950704e+01 1.311069204168772728e+01 9.638952347805695098e+00 6.172691917486500479e+00 4.478303911418127115e+00
1.148859649122807164e-01 3.557894736842105443e-01 8.160526315789473628e-02 9.202631578947366442e-02 1.042105263157894895e-02 4.706754385964911913e-01 6.162393243611632432e-01 6.679644857453246320e-01 1.282453398722194322e+02 1.327947737862872124e+00 4.237101937051005685e+00 1.704191538155968715e+02 2.135930869619529826e+00 4.271861739239059652e+00 6.407792608858588146e+00 8.543723478478119304e+00 1.067965434809764957e+01 1.281558521771717629e+01 1.510419764253169461e+01 1.926490228879335120e+02 7.737837175247156551e+01 2.615421936378605849e+01 1.363642872711828780e+01 9.965928038503411912e+00 6.368173316373454185e+00 4.646408485529259558e+00
1.078808864265927980e-01 3.561772853185596888e-01 6.221606648199447254e-02 8.214681440443212523e-02 1.993074792243767351e-02 4.640581717451524590e-01 6.636886564640743780e-01 7.496369232354780365e-01 1.334073589245973324e+02 1.331460173821034765e+00 4.514922508668449019e+00 1.801289061999801220e+02 2.223366044313553669e+00 4.446732088627107338e+00 6.670098132940663227e+00 8.893464177254214675e+00 1.111683022156777056e+01 1.334019626588132645e+01 1.562091791040710653e+01 1.629650177642820381e+02 8.584101259388337724e+01 4.245503375046127559e+01 1.745999170365617204e+01 1.038413072199209886e+01 9.545062197034644313e+00 6.494747282740719108e+00
1.099932523616734131e-01 3.568083670715250788e-01 7.649797570850204453e-02 8.036437246963565317e-02 3.866396761133603435e-03 4.668016194331983115e-01 6.927136758038606734e-01 7.031206082932680568e-01 1.300229944767297354e+02 1.312438067462998070e+00 4.357610758952953134e+00 1.709447712752229904e+02 2.167004886171839839e+00 4.334009772343679678e+00 6.501014658515521738e+00 8.668019544687359357e+00 1.083502443085920142e+01 1.300202931703104348e+01 1.527847579403674061e+01 1.995717705645303965e+02 7.140476562546463413e+01 2.621488056548957957e+01 1.322409240359065663e+01 9.502738955888238692e+00 6.064463067450279965e+00 4.421579769076738664e+00
1.078601108033240830e-01 3.390720221606648987e-01 7.989612188365650958e-02 8.182825484764542912e-02 1.932132963988918888e-03 4.469321329639888707e-01 6.520734463651509660e-01 6.562824676255507583e-01 1.351057930667196842e+02 1.320447542109349115e+00 4.254584819848828303e+00 1.782921267227388853e+02 2.250452046932073014e+00 4.500904093864146027e+00 6.751356140796223038e+00 9.001808187728292054e+00 1.125226023466036551e+01 1.350271228159244608e+01 1.575316432852451065e+01 2.040806112429927737e+02 6.536658771228808007e+01 2.202019648960342835e+01 1.090051674907854284e+01 8.463854036102738121e+00 5.435051310701277671e+00 3.811535653731902062e+00
1.097047496790757581e-01 3.449935815147625040e-01 7.591142490372272678e-02 7.688703465982027474e-02 9.756097560975601074e-04 4.546983311938382899e-01 6.478207718531214798e-01 6.498037432679748537e-01 1.325412114039144171e+02 1.319850361401040617e+00 4.188663941255032164e+00 1.750164653731919771e+02 2.208231624945188987e+00 4.416463249890377973e+00 6.624694874835568292e+00 8.832926499780755947e+00 1.104115812472595337e+01 1.324938974967113658e+01 1.563335232447240308e+01 2.106916935683549070e+02 6.863762480640325236e+01 2.316512516983237546e+01 1.063042070535751193e+01 8.509352968957056618e+00 5.716312014569865596e+00 3.778151982163377109e+00
1.151861360718870464e-01 3.553530166880617402e-01 7.969833119383824827e-02 8.012195121951218302e-02 4.236200256739408240e-04 4.705391527599486201e-01 6.332292101639459547e-01 6.337567120408448273e-01 1.279970809285485132e+02 1.327490840960311003e+00 4.137354858670654778e+00 1.701026278698901137e+02 2.133284682142475575e+00 4.266569364284951149e+00 6.399854046427425835e+00 8.533138728569902298e+00 1.066642341071237787e+01 1.279970809285485167e+01 1.503935146389527233e+01 2.217254972457321855e+02 7.051828039311520513e+01 2.303927255649743344e+01 1.068194028551872243e+01 8.736769283238237094e+00 5.650778319141523731e+00 3.896340029528978732e+00
1.060944976076555191e-01 3.441208133971292993e-01 8.122607655502391000e-02 8.297248803827750319e-02 1.746411483253589069e-03 4.502153110047846241e-01 6.348585508096546981e-01 6.378527157318217844e-01 1.340613373213449790e+02 1.311438778688301277e+00 4.290554076604376377e+00 1.760103684657616441e+02 2.233111485087915238e+00 4.466222970175830476e+00 6.699334455263748822e+00 8.932445940351660951e+00 1.116555742543958019e+01 1.339866891052749764e+01 1.570210166742937297e+01 2.079258670757660354e+02 6.777859499435511736e+01 2.250618482070106197e+01 1.098883767980542459e+01 8.557927449578972556e+00 5.511118951264425192e+00 3.838565017759199449e+00
1.018107769423558934e-01 3.492731829573934577e-01 7.027568922305763022e-02 7.415413533834584736e-02 3.878446115288224517e-03 4.510839598997494204e-01 6.920620228857354839e-01 7.083632869582231484e-01 1.342190767211089906e+02 1.294262050330615921e+00 4.546040139204448494e+00 1.737609051507282345e+02 2.232258476111984802e+00 4.464516952223969604e+00 6.696775428335955738e+00 8.929033904447939207e+00 1.116129238055992445e+01 1.339355085667191148e+01 1.570958103309694565e+01 1.969496480749514831e+02 6.974459551249586298e+01 2.680683364192304907e+01 1.208838025159542617e+01 9.288014786193661720e+00 6.358285352870325369e+00 4.227697612842540309e+00
7.087406015037596430e-02 2.779699248120301447e-01 7.389097744360902109e-02 7.863721804511278335e-02 4.746240601503763992e-03 3.488439849624060396e-01 6.229751923818630521e-01 6.301394654048387833e-01 1.725096723498715789e+02 1.256008415160569935e+00 4.963273307344651997e+00 2.167372909519571351e+02 2.873322689352202364e+00 5.746645378704404727e+00 8.619968068056605759e+00 1.149329075740880945e+01 1.436661344676100605e+01 1.723993613611321152e+01 2.011325882546540456e+01 1.543466505645985194e+02 4.998948078353816271e+01 2.163728760253317773e+01 1.283139166806832954e+01 6.679838443485932586e+00 4.420300045571163849e+00 4.107482875042202330e+00
7.016666666666668273e-02 2.875570175438595388e-01 3.108333333333337251e-02 4.547368421052634668e-02 1.439035087719298112e-02 3.577236842105263048e-01 9.263451158609841141e-01 9.572323670308244825e-01 1.685739314891152674e+02 1.244531522043536675e+00 5.160182731075179774e+00 2.097507946738981843e+02 2.808002808096493830e+00 5.616005616192987659e+00 8.424008424289484154e+00 1.123201123238597532e+01 1.404001404048247004e+01 1.684801684857896831e+01 1.965601965667546125e+01 1.278310740721874623e+02 5.598517824636324747e+01 3.457309272307055892e+01 1.812266070422067443e+01 8.437360440086338897e+00 5.995563776237947451e+00 5.677870530998462506e+00
6.617342536669540420e-02 2.946764452113890265e-01 3.286885245901640523e-02 4.933994823123383222e-02 1.647109577221743740e-02 3.608498705780844862e-01 9.057888941060998622e-01 9.464511940305736504e-01 1.667702440060851359e+02 1.225573907299019494e+00 5.464616861424453909e+00 2.045437693122503902e+02 2.779504066768085035e+00 5.559008133536170071e+00 8.338512200304258215e+00 1.111801626707234014e+01 1.389752033384043273e+01 1.667702440060851643e+01 1.945652846737660724e+01 1.291269057173472561e+02 5.461653668215709700e+01 3.562379477706727471e+01 2.013205026622817684e+01 9.021521687802032119e+00 5.588484425088738661e+00 5.855011026789559203e+00
6.597497842968073900e-02 2.913848144952545516e-01 3.138481449525455658e-02 4.863675582398621633e-02 1.725194132873167363e-02 3.573597929249353045e-01 9.272344647833417053e-01 9.702428804828031605e-01 1.689735911390350509e+02 1.228751516151137979e+00 5.444717419480144649e+00 2.080148361675369415e+02 2.814832518760879587e+00 5.629665037521759174e+00 8.444497556282634321e+00 1.125933007504351835e+01 1.407416259380439527e+01 1.692810929145511167e+01 1.980599351261195906e+01 1.253901219147121111e+02 5.445580627839721188e+01 3.581913330340241686e+01 2.004789310941320579e+01 9.079885921059554832e+00 5.648517216839632482e+00 5.825277330976858181e+00
6.747807017543856756e-02 2.944517543859648812e-01 3.320614035087717658e-02 4.887719298245615795e-02 1.567105263157894321e-02 3.619298245614034348e-01 9.081754418797380879e-01 9.454676618329826976e-01 1.670961884094408560e+02 1.230866511575920530e+00 5.398008368654822142e+00 2.058946093681381342e+02 2.783928205694757185e+00 5.567856411389514371e+00 8.351784617084268447e+00 1.113571282277902874e+01 1.391964102847377305e+01 1.670356923416853689e+01 1.952969153269028979e+01 1.296339230253917094e+02 5.504988545633013075e+01 3.487258625915752930e+01 1.960025870099984502e+01 9.288226036155540655e+00 5.617885575770666051e+00 5.621691045151865573e+00
6.783333333333332882e-02 2.929824561403508443e-01 3.168421052631581469e-02 4.799122807017544567e-02 1.630701754385965527e-02 3.608157894736843674e-01 9.208067015401536493e-01 9.580877023435655504e-01 1.671134274339379715e+02 1.233968708957629667e+00 5.334990240023135044e+00 2.066294376478378183e+02 2.785223790565632740e+00 5.570447581131265480e+00 8.355671371696901772e+00 1.114089516226253096e+01 1.392611895282816015e+01 1.671134274339380354e+01 1.956192601108361728e+01 1.290330310136384355e+02 5.472945536827354829e+01 3.528706862518202314e+01 1.966518734455900130e+01 8.802161454375390548e+00 5.675360843636791941e+00 5.863389510291349360e+00
1.065991902834008409e-01 3.112955465587044501e-01 1.138596491228070218e-01 1.151956815114710125e-01 1.336032388663967998e-03 4.178947368421050967e-01 3.582119366757912093e-01 3.595574756692108687e-01 1.445793266614965944e+02 1.344621393907448947e+00 3.995422055074260737e+00 1.943539004720390153e+02 2.403894702266872407e+00 4.807789404533744815e+00 7.211684106800619887e+00 9.615578809067489630e+00 1.201947351133436115e+01 1.442336821360123977e+01 1.683446039674980099e+01 2.196747213382307393e+02 5.436108242890044551e+01 1.383980230940209921e+01 1.004812854899727093e+01 6.289321121320518237e+00 3.992990559242280302e+00 3.151476747743860773e+00
1.043922305764411196e-01 3.128759398496240296e-01 1.091290726817042561e-01 1.100563909774436300e-01 9.273182957393474000e-04 4.172681704260651214e-01 3.510316570546420656e-01 3.524014453605500141e-01 1.451094328277790453e+02 1.337022678372851381e+00 4.059007642715288355e+00 1.942339378999101314e+02 2.412422558685569651e+00 4.824845117371139303e+00 7.237267676056709398e+00 9.649690234742278605e+00 1.206211279342784515e+01 1.447453535211341880e+01 1.688695791079898711e+01 2.211609733711529771e+02 5.655000316077251910e+01 1.383531457418985688e+01 1.009269887161381440e+01 6.315990186834635978e+00 4.088121826813408077e+00 3.148482333868436012e+00
9.999999999999999167e-02 3.290757381258023195e-01 1.116944801026957673e-01 1.136585365853658852e-01 1.964056482670089709e-03 4.290757381258024639e-01 3.512706698274457584e-01 3.543211877544431565e-01 1.409703064284607876e+02 1.305490166356381598e+00 4.427633039932175940e+00 1.838343460285894650e+02 2.347617515793419152e+00 4.695235031586838303e+00 7.042852547380253903e+00 9.390470063173676607e+00 1.173808757896709309e+01 1.408570509476050781e+01 1.648000250319017823e+01 2.234167692139443488e+02 6.280601762441978053e+01 1.599384276674615357e+01 1.114973701763154068e+01 6.968131486052361545e+00 4.321798173683609967e+00 3.541660452947610338e+00
1.018671679197994950e-01 3.306328320802004450e-01 1.128258145363408849e-01 1.169611528822055019e-01 4.135338345864656914e-03 4.324999999999998845e-01 3.132565938167946595e-01 3.204293283993092656e-01 1.398214471041438287e+02 1.314751303635918633e+00 4.321363337075758260e+00 1.844038462267523641e+02 2.325774360893105630e+00 4.651548721786211260e+00 6.977323082679317778e+00 9.303097443572422520e+00 1.162887180446553259e+01 1.395464616535863556e+01 1.629155948475911941e+01 2.285267508196088500e+02 6.630813193695483676e+01 1.710210211496021770e+01 1.047234962945425352e+01 7.585895699377376289e+00 4.454863804958197449e+00 3.478991767219749676e+00
1.045892169448010695e-01 3.189858793324775177e-01 1.069383825417201256e-01 1.093645699614891054e-01 2.426187419768934678e-03 4.235750962772786288e-01 4.581424996548459361e-01 4.616405743986091159e-01 1.432624536817098715e+02 1.328978532219725395e+00 4.184588561085295311e+00 1.899647938332528554e+02 2.383873391865996894e+00 4.767746783731993787e+00 7.151620175597992457e+00 9.535493567463987574e+00 1.191936695932998447e+01 1.430324035119598491e+01 1.668711374306197115e+01 2.131153698186265899e+02 5.440312476835379130e+01 1.676861640798454189e+01 1.083773631656213432e+01 6.643206177631224563e+00 4.383796746307831782e+00 3.550325018975822200e+00
1.036369770580297250e-01 3.162618083670714064e-01 1.119298245614035736e-01 1.134075573549258170e-01 1.477732793522265956e-03 4.198987854251012286e-01 4.436044498226885957e-01 4.453158515475950097e-01 1.437419654515479692e+02 1.328930922665722436e+00 4.165761405517662830e+00 1.906901654810010598e+02 2.389881986147590620e+00 4.779763972295181240e+00 7.169645958442772304e+00 9.559527944590362480e+00 1.194940993073794999e+01 1.433929191688554461e+01 1.672917390303313212e+01 2.120062763398290713e+02 5.201697043582966273e+01 1.617111485767399515e+01 1.071733124110610014e+01 6.274951662526635054e+00 4.339371425572331020e+00 3.424837448041325505e+00
1.104448621553884707e-01 3.186027568922304987e-01 1.049937343358395836e-01 1.083521303258145468e-01 3.358395989974936793e-03 4.290476190476189555e-01 3.995708393510443157e-01 4.043806771303424807e-01 1.418974534081422973e+02 1.356349416292741639e+00 4.019192272216459472e+00 1.931667176342913308e+02 2.359895860633678843e+00 4.719791721267357687e+00 7.079687581901034754e+00 9.439583442534715374e+00 1.179947930316838978e+01 1.415937516380206951e+01 1.662346409137274605e+01 2.177988862784139599e+02 5.725007769308943040e+01 1.820213132066866990e+01 1.094330007169274488e+01 7.175796762318399580e+00 4.541103821651812034e+00 3.484163731208206105e+00
1.009057527539779786e-01 3.282802937576499436e-01 1.106242350061199947e-01 1.139596083231334406e-01 3.335373317013463207e-03 4.291860465116280055e-01 3.782423896557214338e-01 3.822928684412248979e-01 1.404993317610428676e+02 1.309705619653861008e+00 4.354266789039863639e+00 1.839987060363211810e+02 2.337324976517269004e+00 4.674649953034538008e+00 7.011974929551808344e+00 9.349299906069076016e+00 1.168662488258634724e+01 1.402394985910361669e+01 1.638031468330211027e+01 2.273502284178620982e+02 5.706394515405338552e+01 1.693541759884254816e+01 1.164356263161296035e+01 6.885419399339312463e+00 4.303098007384155821e+00 3.595103423951437893e+00
7.141700404858299100e-02 3.966801619433197312e-01 6.388663967611336869e-02 9.615384615384615918e-02 3.226720647773280437e-02 4.680971659919028194e-01 4.465622324126543585e-01 5.521188616754513223e-01 1.395158256985992580e+02 1.204687667323023348e+00 7.412064277385756128e+00 1.698850209744759354e+02 2.322107520734501218e+00 4.644215041469002436e+00 6.966322562203502322e+00 9.288430082938004873e+00 1.161053760367250653e+01 1.406101482915669187e+01 1.691435907417513462e+01 1.827548331190591853e+02 8.831035590334229823e+01 4.733958729721276626e+01 2.786815930278394049e+01 1.846509164631824262e+01 1.233300452674559544e+01 8.923087774839849828e+00
1.044318181818182367e-01 2.730502392344497653e-01 9.340909090909091383e-02 9.521531100478469734e-02 1.806220095693780248e-03 3.774820574162680575e-01 4.548313449677988118e-01 4.596988649308065278e-01 1.625427466335704310e+02 1.387288896815909389e+00 3.703478934239821552e+00 2.258786438465353115e+02 2.707621762644264241e+00 5.415243525288528481e+00 8.122865287932794942e+00 1.083048705057705696e+01 1.353810881322132254e+01 1.624573057586558988e+01 1.895335233850984480e+01 1.841171796971649428e+02 4.713680893772818337e+01 1.367895378157264652e+01 1.005679350402270877e+01 5.354016152719571764e+00 3.959561508674511732e+00 3.051716482430395061e+00
1.064654282765738064e-01 2.669091847265221973e-01 9.362229102167184125e-02 9.519091847265220840e-02 1.568627450980392959e-03 3.733746130030957122e-01 4.597216712769302549e-01 4.710224769110206711e-01 1.623937402173474425e+02 1.404152400340836548e+00 3.572342306254567834e+00 2.282935020408645528e+02 2.705333775355712955e+00 5.410667550711425910e+00 8.116001326067136645e+00 1.082133510142285182e+01 1.352666887677856344e+01 1.623200265213427329e+01 1.893733642748998491e+01 1.818460404728367052e+02 4.546413089685312769e+01 1.300766810269512419e+01 9.322288449303883340e+00 5.384740172840688288e+00 3.762055534985903282e+00 2.932520123157390302e+00
1.049649122807017609e-01 2.752748538011696167e-01 9.945029239766080276e-02 1.008947368421052870e-01 1.444444444444443511e-03 3.802397660818713221e-01 4.554578435619830445e-01 4.577295157138869253e-01 1.593182805229444909e+02 1.390724250359935521e+00 3.695247807682001451e+00 2.226529185376205646e+02 2.654698445504368287e+00 5.309396891008736574e+00 7.964095336513103973e+00 1.061879378201747315e+01 1.327349222752183699e+01 1.592819067302620795e+01 1.863517670022992689e+01 1.860965679546545175e+02 4.671434837458640743e+01 1.277742908044238312e+01 9.806902618614740774e+00 5.485841830854904622e+00 3.814853630693143760e+00 3.017944142839224408e+00
1.066263157894737079e-01 2.745684210526316837e-01 9.383684210526314906e-02 9.723157894736839113e-02 3.394736842105262453e-03 3.811947368421051974e-01 4.584531885423868136e-01 4.677483897815191138e-01 1.603475987768556763e+02 1.407080334752801143e+00 3.695479529544830832e+00 2.278500588602196899e+02 2.670588122161333455e+00 5.341176244322666911e+00 8.011764366483998145e+00 1.068235248864533382e+01 1.335294061080666772e+01 1.602352873296799629e+01 1.896120669811686810e+01 1.838804522381276172e+02 4.834532883433897155e+01 1.416980806783690738e+01 1.035042675358070063e+01 6.151723281666709120e+00 3.968159707901049771e+00 3.088357321593017346e+00
1.058020050125313277e-01 2.801190476190476564e-01 9.760651629072683577e-02 1.064285714285714002e-01 8.822055137844611247e-03 3.859210526315789425e-01 4.327683868399388456e-01 4.812520580638126044e-01 1.608637664808495060e+02 1.405457282891901194e+00 3.837525281421355849e+00 2.295149632791522265e+02 2.678275945128447244e+00 5.356551890256894488e+00 8.034827835385344841e+00 1.071310378051378898e+01 1.339137972564224199e+01 1.606965567077068968e+01 1.879196060729655571e+01 1.775339710425366206e+02 5.683862146918639979e+01 1.814645423760438803e+01 1.177128514781858293e+01 6.352656978183604863e+00 4.706909024554509102e+00 3.714157679402780854e+00
1.000526315789473930e-01 2.870760233918129289e-01 9.680116959064327675e-02 1.035614035087719514e-01 6.760233918128659078e-03 3.871286549707602109e-01 4.780242119494534370e-01 4.893669789938768222e-01 1.574518320408587329e+02 1.358896951477146064e+00 3.988554040743423457e+00 2.142565011328787250e+02 2.622499435168941240e+00 5.244998870337882479e+00 7.867498305506821943e+00 1.048999774067576496e+01 1.311249717584470886e+01 1.573499661101364389e+01 1.851403152903386129e+01 1.718195023593117696e+02 5.690256888282852543e+01 1.725395792674793327e+01 1.152730833272645583e+01 6.381908531962536379e+00 4.546312314097812113e+00 3.584787867877869516e+00
1.004114832535885488e-01 2.759712918660287007e-01 9.701913875598087988e-02 1.007559808612440155e-01 3.736842105263157767e-03 3.763827751196172078e-01 4.355037500863400135e-01 4.483914286503819513e-01 1.607221899271205814e+02 1.367906614331691140e+00 3.867916297887761257e+00 2.197502096452260787e+02 2.677066503220630889e+00 5.354133006441261777e+00 8.031199509661893998e+00 1.070826601288252355e+01 1.338533251610315489e+01 1.606239901932378800e+01 1.877345022942633435e+01 1.701837633087985466e+02 5.332388196812630810e+01 1.494902170572727762e+01 1.030980444144504204e+01 6.073448027500769619e+00 4.218214019332958031e+00 3.310231526756524101e+00
1.007439271255060886e-01 2.810981781376518107e-01 9.425607287449395966e-02 9.680161943319837148e-02 2.545546558704455623e-03 3.818421052631580381e-01 4.661280203631470997e-01 4.886863680859683812e-01 1.584974787624629471e+02 1.366512042842223718e+00 3.914582206269419107e+00 2.170945418265279443e+02 2.640419710625586447e+00 5.280839421251172894e+00 7.921259131876758453e+00 1.056167884250234579e+01 1.320209855312793579e+01 1.584251826375351691e+01 1.848293797437910868e+01 1.837543313118442825e+02 4.996666769734623870e+01 1.432434823315302630e+01 1.036291995015056600e+01 6.084694403297844723e+00 3.972285376328286599e+00 3.182239548966221854e+00
1.266213921901527817e-01 3.253565365025466449e-01 1.086757215619694600e-01 1.120118845500848864e-01 3.336162988115452029e-03 4.519779286926993711e-01 4.236912357463595846e-01 4.412823143308849949e-01 1.355455235920371422e+02 1.397733178382543295e+00 3.665207650588560462e+00 1.900485805609449983e+02 2.259092059867285673e+00 4.518184119734571347e+00 6.777276179601857464e+00 9.036368239469142694e+00 1.129546029933642792e+01 1.355455235920371493e+01 1.581364441907099838e+01 2.345266306635703017e+02 5.409704078799570226e+01 1.574292847893731029e+01 1.086352757078725340e+01 6.611486745931587805e+00 4.386057083203893647e+00 3.344647265262218117e+00
1.267232597623089985e-01 3.240237691001697784e-01 1.159422750424448229e-01 1.173938879456706413e-01 1.451612903225805908e-03 4.507470288624787491e-01 3.729064932811461119e-01 3.929359499789065180e-01 1.341302487936588648e+02 1.392036950179221355e+00 3.639595315756167793e+00 1.863835630156144134e+02 2.235504146560981287e+00 4.471008293121962573e+00 6.706512439682941640e+00 8.942016586243925147e+00 1.117752073280490244e+01 1.341302487936588328e+01 1.564852902592686235e+01 2.376012106900519711e+02 5.135693094240691892e+01 1.437846919399503953e+01 1.081184345942576286e+01 5.843703800415159577e+00 4.217634394714144364e+00 3.238049464844452441e+00
1.235167464114832747e-01 3.196570972886762507e-01 1.142424242424242425e-01 1.161483253588516812e-01 1.905901116427431924e-03 4.431738437001593311e-01 3.818568036566017398e-01 3.922062597897628677e-01 1.367016417823308245e+02 1.389385214541351443e+00 3.739406134128384629e+00 1.897016846563471972e+02 2.277511871993944226e+00 4.555023743987888452e+00 6.832535615981832677e+00 9.110047487975776903e+00 1.138755935996972468e+01 1.366507123196366535e+01 1.594258310395761136e+01 2.295383316450934785e+02 5.173468089497460909e+01 1.558125227374589628e+01 1.082738374943189186e+01 6.140271648737191335e+00 4.331950739872158174e+00 3.260219354057694474e+00
1.291950464396285081e-01 3.234442724458204133e-01 1.000696594427244873e-01 1.003018575851393479e-01 2.321981424148609390e-04 4.526393188854488936e-01 4.661573880161206107e-01 4.663088266423634498e-01 1.332836030991730922e+02 1.401367008640759027e+00 3.599981345935345800e+00 1.865944967991067358e+02 2.220310846648343439e+00 4.440621693296686878e+00 6.660932539945035202e+00 8.881243386593373756e+00 1.110155423324171942e+01 1.332186507989007040e+01 1.554217592653840718e+01 2.354400158976127670e+02 5.381508864337212117e+01 1.487178604822023864e+01 1.095107413273472119e+01 6.262594807990030432e+00 4.252698674863647277e+00 3.364140463648344515e+00
1.259064327485380497e-01 3.256432748538011235e-01 1.041301169590643366e-01 1.070029239766082108e-01 2.872807017543859819e-03 4.515497076023392564e-01 4.144081846784667400e-01 4.525416760659063398e-01 1.335859997311636960e+02 1.393115347091314460e+00 3.673024965471364922e+00 1.864890959723482240e+02 2.226433328852727378e+00 4.452866657705454756e+00 6.679299986558183022e+00 8.905733315410909512e+00 1.113216664426364133e+01 1.335859997311636604e+01 1.558503330196909253e+01 2.366423981696929673e+02 5.235590180602147115e+01 1.561025839305331964e+01 1.140231177450361244e+01 6.619415914967415659e+00 4.169115509279237131e+00 3.382705346372501864e+00
1.224500907441016251e-01 3.287386569872957631e-01 1.006896551724137806e-01 1.031034482758620974e-01 2.413793103448276436e-03 4.511887477313973327e-01 4.555692212585905065e-01 4.696512597637383934e-01 1.342500079462346889e+02 1.377573830565562485e+00 3.804238366551852657e+00 1.850582013397221317e+02 2.236814192516800137e+00 4.473628385033600274e+00 6.710442577550399079e+00 8.947256770067200549e+00 1.118407096258400024e+01 1.348358107986568832e+01 1.573302053869669770e+01 2.325485841385819299e+02 5.494078010510136068e+01 1.783853732480960019e+01 1.176006478230256569e+01 6.772073000758980221e+00 4.467328667914900464e+00 3.530550228984910888e+00
1.273766447368421262e-01 3.406661184210526550e-01 1.005674342105263019e-01 1.031085526315789619e-01 2.541118421052630458e-03 4.680427631578946146e-01 4.761860891141121988e-01 4.946257210382587477e-01 1.288335489474658289e+02 1.379570003466696448e+00 3.810604355950736988e+00 1.780469156083287885e+02 2.146827693538893023e+00 4.293655387077786045e+00 6.440483080616679068e+00 8.587310774155572091e+00 1.073413846769446423e+01 1.288096616123335814e+01 1.502779385477224849e+01 2.398631985525495338e+02 5.710569261794338303e+01 1.651904381089908824e+01 1.234472723892263346e+01 7.389972481045842478e+00 4.480830538424712017e+00 3.739844550629042530e+00
1.260271646859083272e-01 3.172750424448217421e-01 1.087606112054329416e-01 1.091001697792869235e-01 3.395585738539897759e-04 4.433022071307301526e-01 4.478499285765049076e-01 4.514953620141562429e-01 1.368432951795513475e+02 1.401027605539808096e+00 3.638989673746623410e+00 1.915498526741089051e+02 2.279019538336612971e+00 4.558039076673225942e+00 6.837058615009839357e+00 9.116078153346451884e+00 1.139509769168306441e+01 1.367411723001967871e+01 1.597119839462511592e+01 2.256465363753320332e+02 5.030057716956737579e+01 1.485813243517682025e+01 1.059183990245891493e+01 6.107989233559020015e+00 4.278086812867947231e+00 3.195650042537493629e+00
1.301393188854489125e-01 3.282507739938080316e-01 1.080185758513931837e-01 1.109520123839009415e-01 2.933436532507741230e-03 4.583900928792570828e-01 4.150673423169267129e-01 4.286363036152141537e-01 1.334776405440089775e+02 1.399546486456021421e+00 3.561323999647545424e+00 1.868536745388501004e+02 2.221685001748084254e+00 4.443370003496168508e+00 6.665055005244251873e+00 8.886740006992337015e+00 1.110842500874041505e+01 1.333011001048850375e+01 1.555179501223658534e+01 2.370537645191900253e+02 5.583568391471028747e+01 1.476783570994247619e+01 1.110463728658918825e+01 6.523628717140973698e+00 4.326604101843701145e+00 3.501578080733322995e+00
9.862499999999999045e-02 2.740986842105262999e-01 8.811184210526315508e-02 1.007828947368421268e-01 1.267105263157894922e-02 3.727236842105263182e-01 4.655496254610872464e-01 4.903790171665660114e-01 1.640953476763654919e+02 1.364733702873883070e+00 3.960516148865255381e+00 2.233634503004533656e+02 2.731499190700928725e+00 5.462998381401857451e+00 8.194497572102788396e+00 1.092599676280371490e+01 1.365749595350465029e+01 1.638899514420557679e+01 1.923211955179487376e+01 1.659148869687261083e+02 5.928658800006665075e+01 1.715753964356833094e+01 1.102914441016235436e+01 7.025725026128934125e+00 4.459393122821271760e+00 3.616257770993863918e+00
9.002063983488133025e-02 2.745407636738905199e-01 9.605779153766771938e-02 1.114035087719298656e-01 1.534571723426212710e-02 3.645614035087718641e-01 3.629113819780084849e-01 4.065444420888935650e-01 1.660823185757386966e+02 1.334599258205543704e+00 4.233520670585316559e+00 2.219387289574846420e+02 2.764068526986371843e+00 5.528137053972743686e+00 8.292205580959116418e+00 1.105627410794548737e+01 1.382034263493186899e+01 1.658441116191823284e+01 1.960644949971775830e+01 1.631005697851299203e+02 6.164231078367829753e+01 1.606665230126284172e+01 1.087101922624425043e+01 7.111849558568433594e+00 4.369137645744276988e+00 3.436992771554417736e+00
9.305985552115583759e-02 2.534107327141383315e-01 9.187306501547989890e-02 1.030443756449948567e-01 1.117131062951496646e-02 3.464705882352940858e-01 3.683602634296047063e-01 4.071979838503895222e-01 1.757443438825310409e+02 1.372577908332286212e+00 3.813758891101069803e+00 2.415368797657178561e+02 2.924741682313646951e+00 5.849483364627293902e+00 8.774225046940939521e+00 1.169896672925458780e+01 1.462370841156823253e+01 1.754845009388187904e+01 2.057547621174760621e+01 1.502026087516867108e+02 5.781912005942405841e+01 1.372824933480271525e+01 1.083529838242960786e+01 6.284636378478343666e+00 4.162724046701304914e+00 3.339138946066498193e+00
9.769065520945220682e-02 2.447690655209451560e-01 9.505907626208380534e-02 1.077551020408163696e-01 1.269602577873255381e-02 3.424597207303974322e-01 3.344214086687830600e-01 3.778870022409597240e-01 1.782419039852984213e+02 1.410893974821633590e+00 3.679698742382909504e+00 2.519317467898057714e+02 2.969774915465539511e+00 5.939549830931079022e+00 8.909324746396620753e+00 1.187909966186215804e+01 1.484887457732770066e+01 1.781864949279324151e+01 2.082727533496763783e+01 1.530093830963929236e+02 5.212354931079949694e+01 1.436698899454307998e+01 1.053033355877864530e+01 5.741039364982707838e+00 4.111854393830666865e+00 3.154617670147674247e+00
1.009630459126539537e-01 2.636282194848825200e-01 1.010414333706607243e-01 1.077827547592385415e-01 6.741321388577826805e-03 3.645912653975364459e-01 4.103233474674570780e-01 4.301134386362384654e-01 1.659838905206145228e+02 1.387932340184523827e+00 3.678573900293549137e+00 2.306381586201873120e+02 2.765434323300121733e+00 5.530868646600243466e+00 8.296302969900368751e+00 1.106173729320048693e+01 1.382717161650060866e+01 1.659260593980073750e+01 1.935804026310085746e+01 1.641814105463262194e+02 5.228130878596635966e+01 1.331772110502884665e+01 1.022782074044099332e+01 5.932801741096772830e+00 4.043980603856991429e+00 3.137223061669989654e+00
9.482655502392343949e-02 2.603528708133971414e-01 1.001734449760765533e-01 1.022069377990430517e-01 2.033492822966510068e-03 3.551794258373206503e-01 3.928092123650104850e-01 3.961194380915661895e-01 1.699338545547461763e+02 1.367137943525130961e+00 3.812721702519115574e+00 2.322544741265514006e+02 2.828769959227221964e+00 5.657539918454443928e+00 8.486309877681664560e+00 1.131507983690888786e+01 1.414384979613611115e+01 1.697261975536332912e+01 1.982734846346509627e+01 1.722787834411084305e+02 4.649600215564364447e+01 1.179361756631860203e+01 9.427594768856543794e+00 5.287784456365907992e+00 3.611259864973233036e+00 2.860494547273698451e+00
9.796052631578951175e-02 2.578491902834008642e-01 9.903340080971657911e-02 1.009109311740890857e-01 1.877530364372468914e-03 3.558097165991904176e-01 3.863493670911373745e-01 3.891368514022887637e-01 1.697693193073292832e+02 1.381905162633242590e+00 3.689417490262618227e+00 2.345066635772913628e+02 2.827510840114392021e+00 5.655021680228784042e+00 8.482532520343175619e+00 1.131004336045756808e+01 1.413755420057195877e+01 1.696506504068635124e+01 1.983306171076025848e+01 1.749110096845148519e+02 4.522884921522727808e+01 1.135915682696253981e+01 9.321462832716205682e+00 4.996107943172718890e+00 3.646162014467979606e+00 2.766834181709548091e+00
9.702339181286551151e-02 2.665263157894737223e-01 1.044444444444444231e-01 1.061461988304093496e-01 1.701754385964914093e-03 3.635497076023391783e-01 3.670960289084972406e-01 3.701927501925390551e-01 1.659622129912861794e+02 1.366974637894879718e+00 3.801175398187214949e+00 2.268429895734797981e+02 2.763897510417347991e+00 5.527795020834695983e+00 8.291692531252040865e+00 1.105559004166939197e+01 1.381948755208673951e+01 1.658338506250408173e+01 1.934728257292143994e+01 1.804583732897416439e+02 4.574912684544619168e+01 1.184434301075323503e+01 9.251981545689949016e+00 5.222538655304640898e+00 3.646172430575436163e+00 2.795937976129148073e+00
9.728832951945079466e-02 2.527631578947368007e-01 1.052974828375285860e-01 1.092334096109839753e-01 3.935926773455378919e-03 3.500514874141876231e-01 3.527519465346556915e-01 3.653121671251146063e-01 1.734801239261504406e+02 1.389759791448211379e+00 3.658831118484449085e+00 2.415239265586602357e+02 2.886809148272380554e+00 5.773618296544761108e+00 8.660427444817139886e+00 1.154723659308952222e+01 1.443404574136190988e+01 1.732085488963427977e+01 2.020766403790666743e+01 1.686616207087267014e+02 4.328277577406576881e+01 1.151514085357290185e+01 9.368370301153388979e+00 4.832413716726713382e+00 3.710407661736476737e+00 2.705027050511138675e+00
1.171981424148606926e-01 3.121671826625387336e-01 6.523993808049537158e-02 7.325851393188854976e-02 8.018575851393190332e-03 4.293653250773994401e-01 6.664013678764874049e-01 6.980640174112962004e-01 1.410795553556255584e+02 1.394864876950147492e+00 3.920366071611586900e+00 1.981555985483911400e+02 2.348164568574245159e+00 4.696329137148490318e+00 7.044493705722737253e+00 9.392658274296980636e+00 1.174082284287123201e+01 1.408898741144547451e+01 1.661925808993545317e+01 1.820684785571702946e+02 6.402608081132753171e+01 2.312447792290006277e+01 1.332547070359664154e+01 8.993812268620361650e+00 5.322474023719090397e+00 4.247512868444350609e+00
1.182313341493268360e-01 3.150428396572826362e-01 7.085679314565483666e-02 8.051407588739288579e-02 9.657282741738069942e-03 4.332741738066097081e-01 6.293398704832842139e-01 6.602004498267977084e-01 1.395874289697558197e+02 1.383606732317399723e+00 3.809704824024291003e+00 1.934296565581230425e+02 2.324449052031925422e+00 4.648898104063850845e+00 6.973347156095777599e+00 9.297796208127701689e+00 1.162224526015962844e+01 1.397064194669743564e+01 1.632965072225156788e+01 1.754545235223823170e+02 7.016982544099289498e+01 2.216389800518141939e+01 1.331040258580258318e+01 9.279077982578131767e+00 5.252933773601283107e+00 4.468830741481235158e+00
1.244944598337950625e-01 3.180609418282549505e-01 6.653739612188364072e-02 7.313019390581719514e-02 6.592797783933521463e-03 4.425554016620498743e-01 6.694362889818306073e-01 6.882525082267241245e-01 1.380895717806405969e+02 1.403563609010739732e+00 3.676869430114455106e+00 1.939775311231393857e+02 2.301227601974871195e+00 4.602455203949742391e+00 6.903682805924612254e+00 9.204910407899484781e+00 1.150613800987435553e+01 1.386672453547407358e+01 1.631059052845656154e+01 1.833396381255031429e+02 6.435555084816957105e+01 2.309780705273173140e+01 1.474769364823612783e+01 8.787872092148949932e+00 5.595869016024572318e+00 4.422973352503715816e+00
1.140235457063712154e-01 3.135180055401662336e-01 7.136426592797781576e-02 8.098337950138503882e-02 9.619113573407205714e-03 4.275415512465373657e-01 6.157405061348247832e-01 6.468495854341186346e-01 1.410468181262476435e+02 1.370903459065005991e+00 3.903864093552606551e+00 1.936016087170603441e+02 2.350392335283050027e+00 4.700784670566100054e+00 7.051177005849148749e+00 9.401569341132200108e+00 1.175196167641524525e+01 1.410235401169829750e+01 1.665459843809924223e+01 1.727442044536288392e+02 6.873129994304115087e+01 2.192637109788667971e+01 1.335644335249972769e+01 9.082166895716873967e+00 5.268862226337766685e+00 4.363698072906645464e+00
1.233292533659730988e-01 2.980966952264382241e-01 7.501835985312116373e-02 8.080171358629131828e-02 5.783353733170134604e-03 4.214259485924111703e-01 5.985345961573853568e-01 6.168274194696797830e-01 1.433260220013443984e+02 1.419042203234973432e+00 3.547336727620555852e+00 2.032498595033261211e+02 2.387604015342373209e+00 4.775208030684746419e+00 7.162812046027122292e+00 9.550416061369492837e+00 1.193802007671186516e+01 1.433687917442737891e+01 1.676819712577254862e+01 1.887425009584600559e+02 5.709890417217482650e+01 1.673418461221333686e+01 1.261288437191225498e+01 6.950027730491429523e+00 4.780171643810783522e+00 3.784587918690141439e+00
1.212200956937799085e-01 3.087739234449760617e-01 7.534090909090911115e-02 8.068181818181817400e-02 5.340909090909091474e-03 4.299940191387559563e-01 6.002144804767826081e-01 6.173217581706842427e-01 1.401249821798285211e+02 1.396747022599313715e+00 3.598992219360217959e+00 1.958922069329359772e+02 2.333788242794482493e+00 4.667576485588964985e+00 7.001364728383444813e+00 9.335152971177929970e+00 1.166894121397240980e+01 1.400272945676688963e+01 1.635042667919862325e+01 1.996324751000954052e+02 5.773105671040354281e+01 1.796529722061906753e+01 1.196971414412413992e+01 7.202321366856144991e+00 4.648481695217850707e+00 3.879824967161031868e+00
1.176113360323886858e-01 3.133603238866397023e-01 8.090418353576248056e-02 8.430499325236165409e-02 3.400809716599192175e-03 4.309716599190283048e-01 5.906491694966266026e-01 5.971394590473318997e-01 1.398685975843679330e+02 1.377921783701419489e+00 3.735222111153724711e+00 1.926539448291928522e+02 2.328428316687266353e+00 4.656856633374532706e+00 6.985284950061800835e+00 9.313713266749065411e+00 1.164214158343632910e+01 1.397056990012360167e+01 1.629899821681086181e+01 1.984597376246223064e+02 6.064848465120274312e+01 1.851748277161180312e+01 1.210900168764827534e+01 7.186014156203078151e+00 4.933349049597482328e+00 3.940644269945354328e+00
1.170888157894736936e-01 3.079687500000000133e-01 8.584703947368421684e-02 8.868421052631578205e-02 2.837171052631579093e-03 4.250575657894736792e-01 5.262578608670678282e-01 5.329580185237715595e-01 1.474042751908621938e+02 1.413796775227162739e+00 3.813831209695823343e+00 2.102979407268028638e+02 2.455688554287539738e+00 4.911377108575079475e+00 7.367065662862620989e+00 9.822754217150158951e+00 1.227844277143769958e+01 1.474416020890881107e+01 1.726490665778043621e+01 2.138697278230895904e+02 5.297240109188237511e+01 2.058145979244131141e+01 1.259464488803965310e+01 7.238802887422662202e+00 5.156741899229523085e+00 3.648193307178412059e+00
1.034928229665071781e-01 2.748265550239234467e-01 8.787081339712919659e-02 8.910287081339714199e-02 1.232057416267942152e-03 3.783193779904305831e-01 5.159702833524909549e-01 5.191277461514119951e-01 1.600041687818803382e+02 1.382266657702339696e+00 3.718166893511255733e+00 2.215111534203282702e+02 2.664957799515902614e+00 5.329915599031805229e+00 7.994873398547705179e+00 1.065983119806361046e+01 1.332478899757951396e+01 1.598974679709541036e+01 1.865470459661131386e+01 1.835318101282082068e+02 4.681941090848491172e+01 1.417742430769928497e+01 9.537917063561364373e+00 5.794913279313883336e+00 3.844625043301872935e+00 3.080054296804401126e+00
1.058725761772853213e-01 2.824445983379502145e-01 8.794321329639891160e-02 9.396121883656509410e-02 6.018005540166203315e-03 3.883171745152353971e-01 4.882410362969257789e-01 5.086124165985868029e-01 1.569510382896592944e+02 1.380024224235760544e+00 3.787118856498903341e+00 2.166549328412144746e+02 2.615850638160987618e+00 5.231701276321975236e+00 7.847551914482960633e+00 1.046340255264395047e+01 1.307925319080493765e+01 1.569510382896592127e+01 1.844384358893570308e+01 1.746151050845016357e+02 5.679858407578033308e+01 1.618030448970534607e+01 1.131469100198152589e+01 6.240440035680975939e+00 4.729072098598987139e+00 3.398780929100067905e+00
9.544078947368422883e-02 2.926381578947368500e-01 9.314473684210526627e-02 1.021249999999999936e-01 8.980263157894735962e-03 3.880789473684210789e-01 4.308255387079402143e-01 4.489308237288729408e-01 1.600944701467317657e+02 1.343744369070093425e+00 4.267222845255371766e+00 2.157995279305845884e+02 2.664286421113584158e+00 5.328572842227168316e+00 7.992859263340750253e+00 1.065714568445433663e+01 1.332143210556791324e+01 1.598571852668150051e+01 1.888484932345332012e+01 1.651952828848616832e+02 6.300873268459341858e+01 2.147449861622343548e+01 1.450697770019275268e+01 7.742606401152872131e+00 5.083697954245852024e+00 3.956759878044402878e+00
9.942105263157899331e-02 2.680701754385964586e-01 8.136257309941519189e-02 8.748538011695905503e-02 6.122807017543859670e-03 3.674912280701754241e-01 4.452753719246783648e-01 4.707896345817060291e-01 1.660371582145188825e+02 1.381008055414223445e+00 3.884527345731161763e+00 2.297638185525307790e+02 2.765220417063654068e+00 5.530440834127308136e+00 8.295661251190963981e+00 1.106088166825461627e+01 1.382610208531827567e+01 1.671216390296377696e+01 1.953032792401732110e+01 1.638227879595035006e+02 6.018780208312083602e+01 1.782737853871541489e+01 1.135610240038776197e+01 6.832465711135111697e+00 4.505348540395401891e+00 3.450232180313352437e+00
1.098265550239234667e-01 2.675538277511961827e-01 7.381578947368418187e-02 7.882177033492823726e-02 5.005980861244019829e-03 3.773803827751196494e-01 5.687787305187349540e-01 5.828063995734448222e-01 1.606164075374644824e+02 1.417118488229502482e+00 3.556588522401668229e+00 2.274597518195731709e+02 2.673476327340159386e+00 5.346952654680318773e+00 8.020428982020478159e+00 1.069390530936063755e+01 1.336738163670080048e+01 1.604085796404095632e+01 1.896984745008586160e+01 1.739366864809182118e+02 4.976628317116399813e+01 1.490362138561981276e+01 1.082760358673347945e+01 5.943007677341904937e+00 4.366747790221743308e+00 3.220329334633154517e+00
1.193920145190562748e-01 3.051814882032669041e-01 1.017513611615245145e-01 1.058529945553539214e-01 4.101633393829400877e-03 4.245735027223230817e-01 4.580146236550152183e-01 4.684712628951487323e-01 1.426137780774401449e+02 1.394356556089658472e+00 3.660993968349071537e+00 1.985702634711352630e+02 2.374638657416699772e+00 4.749277314833399544e+00 7.123915972250096651e+00 9.498554629666799087e+00 1.187319328708349886e+01 1.424783194450019330e+01 1.666504574549146156e+01 2.064780402081731268e+02 5.435085796920940027e+01 1.583899062061760965e+01 1.152206071812184263e+01 6.545031906378181219e+00 4.460456204782851763e+00 3.500838816238993179e+00
1.132930298719772577e-01 2.872546230440967130e-01 9.208392603129446352e-02 9.531294452347084667e-02 3.229018492176388786e-03 4.005476529160739707e-01 4.741431527843894544e-01 4.824088214772780381e-01 1.518693632888669356e+02 1.403186232400571498e+00 3.627603551215957900e+00 2.133467546560766834e+02 2.531156054814448275e+00 5.062312109628896550e+00 7.593468164443348378e+00 1.012462421925779310e+01 1.265578027407224582e+01 1.518693632888669676e+01 1.777911787346702965e+01 1.958672431850274336e+02 4.937658641949776239e+01 1.679452903891475302e+01 1.071719061114082017e+01 5.646166814439696147e+00 4.443105498737679682e+00 3.290357072002097816e+00
1.106381578947368549e-01 2.858552631578947789e-01 9.278289473684210587e-02 9.544736842105264185e-02 2.664473684210525144e-03 3.964934210526315228e-01 4.306423365432777706e-01 4.364672970624576820e-01 1.530607290689879108e+02 1.389752087550651050e+00 3.636129515635014631e+00 2.127458056850395565e+02 2.550561538316345356e+00 5.101123076632690712e+00 7.651684614949038732e+00 1.020224615326538142e+01 1.275280769158172944e+01 1.533059246038809498e+01 1.792988694217422818e+01 2.015056322553663790e+02 5.140001837047918798e+01 1.285689640615508722e+01 1.017421154292795649e+01 5.824211938235992925e+00 3.893159285687575188e+00 3.137329423504030323e+00
9.460526315789474783e-02 3.380075187969925343e-01 4.421679197994990429e-02 6.481203007518795967e-02 2.059523809523809701e-02 4.326127819548871711e-01 8.449692802505390787e-01 8.782230623145972359e-01 1.402290027823516141e+02 1.282836453170432156e+00 4.830660853177413117e+00 1.795355882462951342e+02 2.336414542052480225e+00 4.672829084104960451e+00 7.009243626157441120e+00 9.345658168209920902e+00 1.168207271026239447e+01 1.401848725231488224e+01 1.655738104189896376e+01 1.688247184548218343e+02 6.573121064140708825e+01 3.628148164881442028e+01 1.924602071962521777e+01 1.013031077907849564e+01 6.966981128522547806e+00 5.833636608598604667e+00
8.463988919667592148e-02 3.633171745152354859e-01 3.511080332409973609e-02 5.903047091412745584e-02 2.391966759002769893e-02 4.479570637119112964e-01 9.383762461425008139e-01 9.695175669291861142e-01 1.346093617503474036e+02 1.234892713140913756e+00 5.440362127890471911e+00 1.662089620049349037e+02 2.241867843901065971e+00 4.483735687802131942e+00 6.725603531703196580e+00 8.967471375604263883e+00 1.120933921950533296e+01 1.345120706340639316e+01 1.588845588392160302e+01 1.640167192984208100e+02 6.918921202778665247e+01 4.253524644788389253e+01 2.352154328895137070e+01 1.201513979689616818e+01 7.572425600003231061e+00 6.435381484851438572e+00
1.100000000000000006e-01 4.147058823529412019e-01 7.735294117647058265e-02 1.079411764705882348e-01 3.058823529411764872e-02 5.247058823529410221e-01 6.833761624552432412e-01 8.209615624566514169e-01 1.275680668854775490e+02 1.285574163581923113e+00 5.073220061434894568e+00 1.654544751591513432e+02 2.125170917715997199e+00 4.250341835431994397e+00 6.375512753147991596e+00 8.500683670863988795e+00 1.062585458857998866e+01 1.275102550629598319e+01 1.538036864664776360e+01 2.040450128811742729e+02 8.548768201122020116e+01 4.334714425003352289e+01 2.240313032937367765e+01 1.405853289231207626e+01 8.905221119377429773e+00 6.288282629067962759e+00
1.262993421052631404e-01 3.317927631578947434e-01 1.007648026315789286e-01 1.014638157894736936e-01 6.990131578947361961e-04 4.580921052631579116e-01 4.656905500682887999e-01 4.667772422476941796e-01 1.322067836670151735e+02 1.385164551690515999e+00 3.707658582292642002e+00 1.832213124776108373e+02 2.202221072750472963e+00 4.404442145500945927e+00 6.606663218251416225e+00 8.808884291001891853e+00 1.101110536375236570e+01 1.321332643650283245e+01 1.541554750925330808e+01 2.386750327407689554e+02 5.757381039808296208e+01 1.581615255598174485e+01 1.083213175764062441e+01 6.844036927050527019e+00 4.389758955325742562e+00 3.488903227276269892e+00
1.237326869806093799e-01 3.101731301939056884e-01 9.691828254847646706e-02 1.001454293628809139e-01 3.227146814404429926e-03 4.339058171745152626e-01 4.565480475596827015e-01 4.665472221432920286e-01 1.404481197201500891e+02 1.407587248742492969e+00 3.600987075930059511e+00 1.981785955630857643e+02 2.339855131062824167e+00 4.679710262125648335e+00 7.019565393188475610e+00 9.359420524251296669e+00 1.169927565531411950e+01 1.403913078637695122e+01 1.639341343359858527e+01 2.161961728567856369e+02 5.598324555637932320e+01 1.614060565414498072e+01 1.116465139670175688e+01 6.693878369728975208e+00 4.558685072799476323e+00 3.421987675368892923e+00
1.239900426742532036e-01 3.231721194879090264e-01 1.015504978662873509e-01 1.024182076813656000e-01 8.677098150782355194e-04 4.471621621621620912e-01 4.566685814751912931e-01 4.585403951973585079e-01 1.354146602796730576e+02 1.386556775885534609e+00 3.672637703067299420e+00 1.877718288217991187e+02 2.255883035636479406e+00 4.511766071272958811e+00 6.767649106909439993e+00 9.023532142545917623e+00 1.127941517818240058e+01 1.353529821381887999e+01 1.580045826102070450e+01 2.289032336316201111e+02 5.624474456820620816e+01 1.498760693945561684e+01 1.073696766918052958e+01 6.566103480608431298e+00 4.348902600651203265e+00 3.354294002012233822e+00
1.310014619883040909e-01 3.224342105263158231e-01 1.068055555555555702e-01 1.070979532163742892e-01 2.923976608187136726e-04 4.534356725146198031e-01 4.417316104479273586e-01 4.422123824812590476e-01 1.337211652054632509e+02 1.411213647648922764e+00 3.489243561904403101e+00 1.889017423104373563e+02 2.228372085833302041e+00 4.456744171666604082e+00 6.685116257499907455e+00 8.913488343333208164e+00 1.114186042916651331e+01 1.337023251499981491e+01 1.559860460083311295e+01 2.360125546364663762e+02 5.191474240631217185e+01 1.499390169459576327e+01 1.081382384556067855e+01 5.948232749739683634e+00 4.334671308662620959e+00 3.310538242514603713e+00
1.230804953560371423e-01 3.272987616099070074e-01 1.018575851393188902e-01 1.018575851393188902e-01 0.000000000000000000e+00 4.503792569659443301e-01 4.839214966629254433e-01 4.839214966629254433e-01 1.347301487368920334e+02 1.383458255708921225e+00 3.729763139491787172e+00 1.868284216533415645e+02 2.243989254999428251e+00 4.487978509998856502e+00 6.731967764998286086e+00 8.975957019997713004e+00 1.121994627499714348e+01 1.346393552999657217e+01 1.570792478499599909e+01 2.309426477461591105e+02 5.533730628246088656e+01 1.608748940577910957e+01 1.067414561167248088e+01 6.601337119247943974e+00 4.376773225343328022e+00 3.395676557959184105e+00
1.229658605974395663e-01 3.330938833570412649e-01 9.256756756756757964e-02 9.337126600284498257e-02 8.036984352773828650e-04 4.560597439544807896e-01 5.052653579469994494e-01 5.069313861801260090e-01 1.328265816067121250e+02 1.371761403019763126e+00 3.799499961561977113e+00 1.820567207260489226e+02 2.213053905500080187e+00 4.426107811000160375e+00 6.639161716500237453e+00 8.852215622000320749e+00 1.106526952750039783e+01 1.327832343300047491e+01 1.549137733850055731e+01 2.348969052792542413e+02 5.855619085021935177e+01 1.688537460506169197e+01 1.088084297438884285e+01 7.112092718230184296e+00 4.466145112587938115e+00 3.520014128702749101e+00
1.128508771929824378e-01 2.908845029239766067e-01 1.051608187134502881e-01 1.082529239766081702e-01 3.092105263157893854e-03 4.037353801169588641e-01 4.062134083520772543e-01 4.104931752882085561e-01 1.494901906646732925e+02 1.392356722404524350e+00 3.637453109961342967e+00 2.083784380396744211e+02 2.490397472304483273e+00 4.980794944608966546e+00 7.471192416913448930e+00 9.961589889217933091e+00 1.245198736152241281e+01 1.494238483382689786e+01 1.747647391062153588e+01 1.942711418998107149e+02 5.489207913813158513e+01 1.275715002228447759e+01 1.103209684934520673e+01 5.948814659695479179e+00 4.208955237470529909e+00 3.260322064765114547e+00
1.153157894736842326e-01 2.972039473684209843e-01 9.139473684210529247e-02 9.545394736842106875e-02 4.059210526315791025e-03 4.125197368421051891e-01 4.627521645263726890e-01 4.725216275672769473e-01 1.460639569715662844e+02 1.389332157878117924e+00 3.691644572408644187e+00 2.025132024976235812e+02 2.433787963658351927e+00 4.867575927316703854e+00 7.301363890975056670e+00 9.735151854633407709e+00 1.216893981829175786e+01 1.460272778195011334e+01 1.708529275141411929e+01 2.021210268552623859e+02 5.401648029339823154e+01 1.469848928959807743e+01 1.115687429708224343e+01 6.151084353305318331e+00 4.284716699823801100e+00 3.378532162051063104e+00
1.020346598202824390e-01 3.193003851091142375e-01 1.036392811296533850e-01 1.045956354300385110e-01 9.563543003851087939e-04 4.213350449293966626e-01 4.836712935659543966e-01 4.859105675735320706e-01 1.429844206715061148e+02 1.322648672098181377e+00 4.203552701696147587e+00 1.892510626605217681e+02 2.379333681345631835e+00 4.758667362691263669e+00 7.138001044036894172e+00 9.517334725382527338e+00 1.189666840672815162e+01 1.427600208807378834e+01 1.668351448509616475e+01 2.090444086008171780e+02 5.711354163951227747e+01 1.598459255271493795e+01 1.021673602710725781e+01 6.875524764128581268e+00 4.350670837339764674e+00 3.337614734316093124e+00
1.029949874686716810e-01 3.137092731829574377e-01 1.009461152882205615e-01 1.015225563909774309e-01 5.764411027568922073e-04 4.167042606516290215e-01 4.866352147189741406e-01 4.872537753678763961e-01 1.443929783307225421e+02 1.330793997978052978e+00 4.082828981486674280e+00 1.923106596462559992e+02 2.402394806666061644e+00 4.804789613332123288e+00 7.207184419998183600e+00 9.609579226664246576e+00 1.201197403333030600e+01 1.441436883999636720e+01 1.681676364666243018e+01 2.049078605997557077e+02 5.717304508246242278e+01 1.589455005418557576e+01 1.007926930391986176e+01 6.913583580827171282e+00 4.312317998064497004e+00 3.297805707191752145e+00
7.722431077694237589e-02 3.438533834586466331e-01 3.767543859649126470e-02 5.622807017543862002e-02 1.855263157894736226e-02 4.210776942355888286e-01 8.958398633762744145e-01 9.260505874083064803e-01 1.428892241696717349e+02 1.226487643109128278e+00 5.545122384515905445e+00 1.753177360024054394e+02 2.379501779254400873e+00 4.759003558508801746e+00 7.138505337763206171e+00 9.518007117017603491e+00 1.189750889627200436e+01 1.427701067552641234e+01 1.682189610991443374e+01 1.588044729321112243e+02 6.261363945999056568e+01 3.851433808273738890e+01 2.281700085485731577e+01 1.140064993408245542e+01 6.389535927886666578e+00 5.923960979744623323e+00
7.588614393125668600e-02 3.475778732545649063e-01 3.470461868958112095e-02 5.394736842105264663e-02 1.924274973147153261e-02 4.234640171858217172e-01 9.356392896741738685e-01 9.676066132664624675e-01 1.422306004392471550e+02 1.219684532626680529e+00 5.606758776994100302e+00 1.736242751851632988e+02 2.369914346330295629e+00 4.739828692660591258e+00 7.109743038990885111e+00 9.479657385321182517e+00 1.184957173165147282e+01 1.421948607798177022e+01 1.692039507906754636e+01 1.539959014745417392e+02 6.326795848532789535e+01 3.979292797570623463e+01 2.356949828030874627e+01 1.187149747911264264e+01 6.575773839300874002e+00 6.084084646357236004e+00
7.625789473684209396e-02 3.369684210526315837e-01 3.424736842105265133e-02 5.354210526315789087e-02 1.929473684210526729e-02 4.132263157894736638e-01 9.342488692295944919e-01 9.640774158952575279e-01 1.458193020846918557e+02 1.229887932568790587e+00 5.457845735018334032e+00 1.797534202533672101e+02 2.429555078973082871e+00 4.859110157946165742e+00 7.288665236919250390e+00 9.718220315892331485e+00 1.214777539486541436e+01 1.457733047383850078e+01 1.708769072730449778e+01 1.519444722234935625e+02 6.220094019285163967e+01 3.822543115140949510e+01 2.214675392240150487e+01 1.102921783803712508e+01 6.299194435619723365e+00 5.981652973680104068e+00
7.674485125858124257e-02 3.357551487414186520e-01 4.917048054919910538e-02 6.168192219679635713e-02 1.251144164759725348e-02 4.124999999999998113e-01 8.385019053037826575e-01 8.601494241380764905e-01 1.459507920920204924e+02 1.229843580372614653e+00 5.412143380962944228e+00 1.796266510221071826e+02 2.429232233992594914e+00 4.858464467985189827e+00 7.287696701977789182e+00 9.716928935970379655e+00 1.214616116996297635e+01 1.457539340395557836e+01 1.724148150101673238e+01 1.637745091637910946e+02 6.131257173141986527e+01 3.403236247125438751e+01 1.963267219564272281e+01 1.039536955585722922e+01 6.049960328750286997e+00 5.338607313893485085e+00
7.466791979949875813e-02 3.464974937343358596e-01 4.371553884711781857e-02 5.976190476190477996e-02 1.604636591478696833e-02 4.211654135338345206e-01 8.735686895424601417e-01 9.025358402267354974e-01 1.430274587738510093e+02 1.216750118310370166e+00 5.676317613190126288e+00 1.741615340857883893e+02 2.383790979564184287e+00 4.767581959128368574e+00 7.151372938692555081e+00 9.535163918256737148e+00 1.191895489782091921e+01 1.430274587738511016e+01 1.706601480764153322e+01 1.585080436262949206e+02 6.222104808795064201e+01 3.778582282327901964e+01 2.290169914664297224e+01 1.191198341957881723e+01 6.299563096745231405e+00 5.684079583482144038e+00
7.444508009153316674e-02 3.404462242562928398e-01 3.854118993135013244e-02 5.521739130434783621e-02 1.667620137299771765e-02 4.148913043478261176e-01 9.016000889150000974e-01 9.313678283324565710e-01 1.452486078934734905e+02 1.219641442507350515e+00 5.605856705176935684e+00 1.772482912273117961e+02 2.419143561039523327e+00 4.838287122079046654e+00 7.257430683118573533e+00 9.676574244158093308e+00 1.209571780519761752e+01 1.451486136623714707e+01 1.723679009161512710e+01 1.543301645735466536e+02 6.206138345193090089e+01 3.829093350325324252e+01 2.268894196085866355e+01 1.153272698254589557e+01 6.317994096378434676e+00 5.843468662498463750e+00
7.588815789473685181e-02 3.358004385964912242e-01 3.577850877192983309e-02 5.135416666666667296e-02 1.557565789473685375e-02 4.116885964912280205e-01 9.057316641051205153e-01 9.315767060569668523e-01 1.465433213445292893e+02 1.228521126191409962e+00 5.483848728348534429e+00 1.803123735818420244e+02 2.439017392353481917e+00 4.878034784706963833e+00 7.317052177060446638e+00 9.756069569413927667e+00 1.219508696176741047e+01 1.463410435412089328e+01 1.729057427726912266e+01 1.534741191912528109e+02 6.273016258507265519e+01 3.774005570398905007e+01 2.207143512615598624e+01 1.109242007469237024e+01 6.370049221529792582e+00 5.862156830020146536e+00
9.152916073968703214e-02 2.847510668563300595e-01 1.028876244665718337e-01 1.240611664295874772e-01 2.117354196301565392e-02 3.762802275960171472e-01 2.852907223244555146e-01 3.477448593745600114e-01 1.650884299545105875e+02 1.337455315780284870e+00 4.267379265613716832e+00 2.216842985122430889e+02 2.746329402618921556e+00 5.492658805237843112e+00 8.238988207856760226e+00 1.098531761047568622e+01 1.373164701309460511e+01 1.647797641571352045e+01 1.955196397053201451e+01 1.698060468186529590e+02 6.087529823053925782e+01 2.018790724655670843e+01 1.250885949278930021e+01 7.321010754759608830e+00 5.227200207760732908e+00 3.896716128092369225e+00
9.281954887218045458e-02 3.060526315789475205e-01 1.025037593984962359e-01 1.193909774436090337e-01 1.688721804511278402e-02 3.988721804511277669e-01 2.925269477959100417e-01 3.370410745288557886e-01 1.595607712216127538e+02 1.327330324462530964e+00 4.491115041939877095e+00 2.129146431839301385e+02 2.658202740692665600e+00 5.316405481385331200e+00 7.974608222078002129e+00 1.063281096277066240e+01 1.329101370346333333e+01 1.594921644415600426e+01 1.894652285158737826e+01 1.842162403501681922e+02 6.953485891998863622e+01 2.482964773696361505e+01 1.500031406427123315e+01 7.718316199096936892e+00 5.386842986913739750e+00 4.382823373230873010e+00
9.397744360902254845e-02 3.213909774436090050e-01 1.007142857142857145e-01 1.287293233082706934e-01 2.801503759398496843e-02 4.153684210526315534e-01 2.913901203735625445e-01 3.809431385780467916e-01 1.533834358686768837e+02 1.325554118413891480e+00 4.780210368538790000e+00 2.047218440200432497e+02 2.551877648702130852e+00 5.103755297404261704e+00 7.655632946106393000e+00 1.020751059480852341e+01 1.275938824351065648e+01 1.532797432997385201e+01 1.814526089670057729e+01 1.955666888938251873e+02 7.532143142656646262e+01 2.657950308542652351e+01 1.621193046556609474e+01 9.477118168669798948e+00 6.424353398312445229e+00 5.106181991373031082e+00
7.641304347826084753e-02 3.010411899313500950e-01 4.728832951945083352e-02 6.974256292906180765e-02 2.245423340961099495e-02 3.774542334096109841e-01 7.781863540609121888e-01 8.400939611896695025e-01 1.657813615216845449e+02 1.267210656907168609e+00 5.107581150415818172e+00 2.111038372996609951e+02 2.760679096404941912e+00 5.521358192809883825e+00 8.282037289214828846e+00 1.104271638561976765e+01 1.380339548202471356e+01 1.656407457842965769e+01 1.951051133792323000e+01 1.346666140611399101e+02 5.978305618572757396e+01 3.417154320414263680e+01 1.718970581870485503e+01 9.489574779787600889e+00 7.114699274751217217e+00 5.687686219894628969e+00
8.665991902834006833e-02 2.819163292847503555e-01 5.102564102564104143e-02 7.499325236167340980e-02 2.396761133603238572e-02 3.685762483130904932e-01 6.876337776587059247e-01 7.611936362015488955e-01 1.726867718360475408e+02 1.334881402882846624e+00 4.676391392808363356e+00 2.319009829682019301e+02 2.874802649865619397e+00 5.749605299731238794e+00 8.624407949596855971e+00 1.149921059946247759e+01 1.437401324932809032e+01 1.738201603239383886e+01 2.062988637390313329e+01 1.292472680451286919e+02 6.568142862123976045e+01 3.028038409052043534e+01 1.705349067481276393e+01 1.055650629344109781e+01 7.030616022059107628e+00 5.520595203243349403e+00
8.111695906432747627e-02 2.786023391812866290e-01 5.601169590643278323e-02 8.309356725146198330e-02 2.708187134502924864e-02 3.597192982456141053e-01 6.717352886119661859e-01 7.464773236967311432e-01 1.737568532161971291e+02 1.305691536184947266e+00 4.698075186721567320e+00 2.281437799340072274e+02 2.889868703925213111e+00 5.779737407850426223e+00 8.669606111775641111e+00 1.155947481570085245e+01 1.444934351962607266e+01 1.739927228361133871e+01 2.040375810107158827e+01 1.306692711769384800e+02 5.775266558693108010e+01 3.138275535094483359e+01 1.602814972686686090e+01 9.174288536800350613e+00 6.755655014094444688e+00 5.469233254529610733e+00
8.521052631578947267e-02 3.264473684210525972e-01 7.271052631578947545e-02 9.737719298245611776e-02 2.466666666666666313e-02 4.116578947368421115e-01 5.398011860059501732e-01 6.035188459458559196e-01 1.615587170341330534e+02 1.291416918372756628e+00 5.035531971056617984e+00 2.117468539637675349e+02 2.688844532682620247e+00 5.377689065365240495e+00 8.066533598047861631e+00 1.075537813073048099e+01 1.344422266341310213e+01 1.620014023360856115e+01 1.918160338194254777e+01 1.645835167772196428e+02 7.514488391806013112e+01 3.644417027990977687e+01 1.788488382284407052e+01 9.379437226384116144e+00 7.096503293489790032e+00 5.829300118330179359e+00
7.917496443812234441e-02 3.098933143669986290e-01 1.039331436699857808e-01 1.230796586059743486e-01 1.914651493598861984e-02 3.890682788051210150e-01 3.033958285886418915e-01 3.574770206200832967e-01 1.645569280036650923e+02 1.277143851353513160e+00 5.132063722528456218e+00 2.121286096211607060e+02 2.740046220415883749e+00 5.480092440831767497e+00 8.220138661247649026e+00 1.096018488166353499e+01 1.370023110207942274e+01 1.656213241479018805e+01 1.954398405962353280e+01 1.826676086647154875e+02 6.764229940941257269e+01 2.642247538653003858e+01 1.493192615707294557e+01 8.116991045113648440e+00 5.227721738373090510e+00 4.317759760438664607e+00
8.787006578947369195e-02 3.376480263157894957e-01 9.862664473684210065e-02 1.292680921052631604e-01 3.064144736842104935e-02 4.255180921052631460e-01 3.554985900211795613e-01 4.579715472186983161e-01 1.513200499904281457e+02 1.288815341659414804e+00 5.263350125750274167e+00 1.964877593690375193e+02 2.518931526476097194e+00 5.037863052952194387e+00 7.556794579428287584e+00 1.007572610590438877e+01 1.261839610226654074e+01 1.513732762874263038e+01 1.790785824257506675e+01 1.989038748782169250e+02 8.136768695292721532e+01 3.510684211646236008e+01 1.865647423821757300e+01 1.018583575221957638e+01 6.512939656285526624e+00 4.904359796941541560e+00
9.785603715170282380e-02 3.327089783281733104e-01 1.029489164086687392e-01 1.121207430340557532e-01 9.171826625387000109e-03 4.305650154798761342e-01 3.845364058379218131e-01 3.978854033184457406e-01 1.458882459984845354e+02 1.310135999119636185e+00 4.554299316011332088e+00 1.919997042036079051e+02 2.429402430931830725e+00 4.858804861863661451e+00 7.288207292795494396e+00 9.717609723727322901e+00 1.214701215465916029e+01 1.457641458559098879e+01 1.713548279037518185e+01 2.160738884936818351e+02 7.132952398998082799e+01 2.282661085938465106e+01 1.541976802910675914e+01 8.010682027428371654e+00 5.106444269756629240e+00 4.292981537084405552e+00
1.028805120910384341e-01 3.196870554765290917e-01 1.076600284495021348e-01 1.150497866287339965e-01 7.389758179231861734e-03 4.225675675675676368e-01 3.550174662811055315e-01 3.707872627301474489e-01 1.476563671526753296e+02 1.342640838248835733e+00 4.245756540671098200e+00 1.993791909422045592e+02 2.458760327526867684e+00 4.917520655053735368e+00 7.376280982580603052e+00 9.835041310107470736e+00 1.229380163763433664e+01 1.475256196516120610e+01 1.730876213882531900e+01 2.217805805037025095e+02 6.622582459135144006e+01 1.964791804619726889e+01 1.282846159148509457e+01 7.024609936374449859e+00 4.757510986472871295e+00 3.715857288067435427e+00
1.026780185758514180e-01 3.202631578947368052e-01 1.088931888544891757e-01 1.144504643962848678e-01 5.557275541795664298e-03 4.229411764705882093e-01 3.853615039962068889e-01 3.982874544610346401e-01 1.467906510289214168e+02 1.337713475988645095e+00 4.241776693618285243e+00 1.971357502051427559e+02 2.445552815774422850e+00 4.891105631548845700e+00 7.336658447323268106e+00 9.782211263097691401e+00 1.222776407887211469e+01 1.471497603769440410e+01 1.723692304751008919e+01 1.988988321953925151e+02 6.540721952888064550e+01 2.329798436104712778e+01 1.447052092136194368e+01 6.895544495014980235e+00 5.201260935915285266e+00 4.157922283207441616e+00
1.019398496240601498e-01 2.793308270676691518e-01 1.144661654135338130e-01 1.208796992481203092e-01 6.413533834586468418e-03 3.812706766917293155e-01 3.547191779479520468e-01 3.664539613666135676e-01 1.598503791581896110e+02 1.373577814637549910e+00 3.880056629164274185e+00 2.196855883227889024e+02 2.662286857268522766e+00 5.324573714537045532e+00 7.986860571805564746e+00 1.064914742907409106e+01 1.331143428634261205e+01 1.597372114361112949e+01 1.876369954634282067e+01 1.834072895956828688e+02 5.047936058357951339e+01 1.501794656601659916e+01 1.056091755331994975e+01 5.892879192373115416e+00 4.262736632129531245e+00 3.042916068778275474e+00
1.043939393939394000e-01 3.679027113237641200e-01 1.074322169059011289e-01 1.111642743221690349e-01 3.732057416267943288e-03 4.722966507177032702e-01 3.515407177471286948e-01 3.571909594104702435e-01 1.392924481763952542e+02 1.328511835291525278e+00 4.774636409990789865e+00 1.884402300366031966e+02 2.321110901357726242e+00 4.642221802715452483e+00 6.963332704073178725e+00 9.284443605430904967e+00 1.160555450678863387e+01 1.392666540814635745e+01 1.640928865393273384e+01 2.731828296872103579e+02 7.773482446344347352e+01 3.045734873950112132e+01 1.573895657944987470e+01 7.596919141866971259e+00 5.453606643402925336e+00 4.484866747703827983e+00
1.201002506265664432e-01 3.476691729323308500e-01 8.407268170426066001e-02 9.051378446115287968e-02 6.441102756892227478e-03 4.677694235588972238e-01 5.496436205865027347e-01 5.673768734659658808e-01 1.296665261939016887e+02 1.352500016342370159e+00 4.090604859995953468e+00 1.755482349593061713e+02 2.160212356763695052e+00 4.320424713527390104e+00 6.480637070291082935e+00 8.640849427054780207e+00 1.080106178381847037e+01 1.296127414058216587e+01 1.524202276709825732e+01 2.150678276508257341e+02 7.095059688275729570e+01 2.387088643389127540e+01 1.246613549497597795e+01 8.822373003913268619e+00 6.127862197764471830e+00 4.160887752303756848e+00
1.144939271255060731e-01 3.543792172739541613e-01 8.398110661268556876e-02 9.354925775978407965e-02 9.568151147098517828e-03 4.688731443994603731e-01 5.448390652601086126e-01 5.805006688037961382e-01 1.291169135057656092e+02 1.325697377289138057e+00 4.306632695005065514e+00 1.709313848760467636e+02 2.151689219844795442e+00 4.303378439689590884e+00 6.455067659534384106e+00 8.606756879379181768e+00 1.075844609922398121e+01 1.291013531906876821e+01 1.525895983359059649e+01 2.193722625892729354e+02 7.266502682360275855e+01 2.324607219958270932e+01 1.372848146626680865e+01 9.339526673766377129e+00 5.738751872748349747e+00 4.271467885444596213e+00
1.141343490304709135e-01 3.714612188365650769e-01 8.583795013850420430e-02 8.979916897506926010e-02 3.961218836565100036e-03 4.855955678670358933e-01 5.796083117274986041e-01 5.901883584739072708e-01 1.244918615939900235e+02 1.312169317678365088e+00 4.436426460000707728e+00 1.633818691053113525e+02 2.073906994583736285e+00 4.147813989167472570e+00 6.221720983751208855e+00 8.295627978334945141e+00 1.036953497291868054e+01 1.244344196750241771e+01 1.460784792788092190e+01 2.237025017572173908e+02 7.602484778650278940e+01 2.555276618469276073e+01 1.317481598527987252e+01 9.833448352587453201e+00 6.390796733763327353e+00 4.561175399660363006e+00
