8191,4095,4095,4095,8191,8191,4095,4095,8191,8191,8191,4095,8191,4096,4096,4095,4095,8191,4096,8191,3411,3303,3177,3057,3005,3059,3177,3287,3367,3314,3219,3103,3041,3037,3119,3223,3293,3353,3267,3179,3135,3050,3077,3159,3259,3323,3325,3246,3151,3079,3067,3086,3172,3259,3311,3275,3217,3127,3063,3063,3172,3211,3289,3317,3301,3186,3101,3057,3087,3155,3249,3311,3314,3273,3158,3069,3039,3055,3185,3301,3411,3343,3235,3103,3025,3063,3181,3258,3325,3315,3261,3186,3091,3063,3105,3201,3299,3335,3295,3199,3141,3055,3083,3173,3277,3333,3335,3253,3158,3125,3062,3133,3230,3323,3353,3305,3212,3116,3063,3099,3213,3280,3342,3327,3257,3165,3091,3107,3131,3243,3317,3354,3307,3195,3113,3067,3099,3183,3279,3349,3373,3273,3167,3087,3069,3125,3223,3323,3358,3319,3236,3122,3063,3067,3155,3269,3334,3359,3281,3190,3143,3071,3121,3195,3281,3327,3322,3256,3198,3099,3096,3141,3231,3299,3317,3285,3205,3165,3110,3119,3241,3255,3298,3307,3257,3193,3151,3107,3134,3195,3278,3305,3311,3263,3191,3124,3107,3131,3205,3271,3363,3323,3251,3179,3151,3123,3173,3246,3321,3315,3279,3211,3155,3139,3155,3213,3275,3297,3299,3247,3221,3151,3165,3197,3261,3291,3315,3271,3223,3174,3145,3165,3227,3278,3299,3283,3231,3186,3157,3161,3240,3263,3291,3301,3263,3209,3165,3163,3175,3270,3279,3301,3281,3235,3191,3155,3165,3206,3251,3290,3323,3263,3221,3175,3167,3187,3226,3283,3275,3280,3242,3171,3165,3151,3193,3235,3263,3255,3222,3175,3175,3135,3145,3181,3221,3231,3207,3166,3127,3098,3119,3121,3175,3215,3202,3197,3153,3129,3125,3133,3215,3211,3231,3233,3195,3167,3143,3143,3198,3191,3233,3233,3211,3185,3134,3139,3162,3183,3234,3239,3291,3235,3173,3143,3147,3173,3237,3237,3233,3195,3166,3115,3061,3079,3043,3001,2905,2695,2570,2403,2282,2203,2153,2127,2147,2085,2032,1962,1935,1907,1930,1977,2007,2018,1949,1869,1778,1709,1674,1699,1754,1783,1855,1774,1771,1741,1740,1776,1820,1848,1832,1753,1674,1599,1518,1476,1470,1437,1334,1138,882,487,4158,7995,1441,1199,1109,1285,1476,1547,1429,1203,996,852,807,834,912,1030,1089,1097,1077,962,707,327,4096,1203,362,4096,1378,817,4286,1226,4096,4096,1911,4363,3127,2661,2857,3051,3151,3190,3037,2377,1139,4096,696,4096,1144,4096,2663,2126,2735,3249,3147,3581,3579,3735,3353,3511,4095,8191,8039,0,4096,3731,2488,917,4096,3023,2243,2999,8191,0,4096,2366,8011,2047,4096,2045,4095,8191,4095,8191,8191,4096,2619,2607,2549,2533,2507,2499,2476,2447,2439,2411,2407,2398,2387,2383,2421,2405,2363,2347,2333,2331,2319,2333,2327,2355,2331,2331,2317,2321,2311,2305,2314,2302,2305,2311,2335,2293,2299,2309,2303,2295,2294,2287,2278,2275,2272,2272,2277,2265,2251,2247,2247,2227,2227,2227,2260,2231,2207,2201,2208,2212,2182,2187,2191,2195,2221,2205,2191,2201,2209,2201,2202,2191,2187,2195,2211,2167,2170,2151,2141,2133,2128,2122,2149,2117,2123,2130,2125,2137,2154,2167,2176,2191,2183,2185,2243,2216,2225,2237,2233,2251,2254,2259,2262,2248,2259,2263,2236,2249,2250,2263,2263,2275,2286,2282,2429,2389,2403,2401,2387,2387,2381,2381,2374,2369,2369,2368,2371,2365,2365,2374,2381,2385,2394,2399,2463,2459,2441,2450,2459,2458,2482,2474,2481,2482,2499,2481,2485,2483,2486,2499,2507,2519,2535,2588,2607,2612,2629,2635,2650,2661,2659,2671,2679,2673,2683,2677,2679,2693,2695,2689,2699,2703,2707,2714,2751,2722,2756,2717,2715,2711,2715,2711,2721,2727,2729,2752,2739,2739,2747,2749,2771,2762,2757,2776,2819,2783,2795,2789,2775,2787,2785,2779,2779,2782,2790,2795,2795,2795,2791,2791,2807,2805,2827,2822,2861,2819,2821,2813,2809,2817,2807,2809,2811,2806,2813,2825,2870,2869,2887,2901,2922,2930,2939,2945,2979,2957,2950,2950,2955,2951,2953,2941,2937,2945,2935,2929,2939,2931,2931,2959,2943,2955,2947,2949,2989,2955,2949,2945,2957,2941,2934,2947,2938,2931,2940,2945,2931,2935,2941,2927,2927,2933,2929,2935,2983,2949,2955,2951,2946,2949,2943,2969,2943,2949,2949,2952,2951,2951,2953,2955,2964,2949,2945,2947,2982,2950,2947,2949,2961,2977,2983,3002,3017,3029,3031,3051,3057,3059,3063,3061,3063,3059,3055,3079,3098,3058,3047,3053,3041,3037,3037,3043,3069,3057,3061,3063,3075,3069,3071,3083,3083,3086,3081,3087,3131,3113,3111,3083,3079,3079,3087,3079,3083,3081,3079,3093,3083,3098,3097,3093,3092,3099,3085,3125,3125,3086,3083,3082,3071,3079,3083,3079,3079,3082,3083,3082,3083,3090,3111,3095,3100,3107,3098,3094,3131,3101,3087,3107,3083,3079,3083,3083,3083,3079,3083,3071,3090,3075,3058,3054,3057,3051,3039,3039,3079,3057,3035,3031,3038,3039,3041,3043,3041,3043,3041,3045,3037,3042,3031,3031,3018,3011,3011,3019,3053,3027,3021,3019,3018,3010,2999,3003,2997,3021,2991,2984,2991,2991,2983,2983,2965,2953,2971,2947,2979,2941,2937,2944,2951,2963,2979,2997,2999,3015,3007,3023,3031,3019,3011,3019,3024,3009,3005,3007,3051,3056,3007,3011,3005,3023,3015,3011,3013,3011,3007,3003,3005,2997,2991,2997,2993,2997,2986,2995,3033,2999,2997,2993,2997,2995,2995,2997,3007,2999,3007,3018,3015,3019,3003,2999,3003,3001,2995,2996,3049,3001,2997,2993,2991,3001,2994,2991,2987,2995,2989,2981,2977,2985,2981,2979,3039,3011,3023,3038,3082,3061,3063,3063,3063,3083,3075,3071,3075,3067,3063,3049,3045,3044,3045,3038,3035,3030,3031,3043,3067,3051,3049,3065,3059,3066,3069,3077,3099,3063,3067,3063,3053,3049,3048,3047,3043,3067,3047,3055,3093,3067,3075,3063,3079,3071,3063,3061,3061,3059,3042,3071,3040,3039,3035,3047,3035,3031,3029,3034,3075,3047,3039,3041,3047,3051,3053,3059,3063,3070,3079,3069,3077,3075,3093,3087,3082,3083,3082,3079,3121,3087,3090,3086,3063,3063,3069,3063,3059,3055,3055,3041,3047,3043,3042,3041,3041,3052,3045,3043,3093,3063,3047,3045,3051,3047,3071,3034,3035,3031,3031,3031,3031,3031,3029,3047,3034,3029,3029,3023,3063,3030,3029,3023,3027,3027,3026,3019,3015,3023,3013,3015,3015,3025,3017,3021,3017,3010,3031,3007,3043,3018,3013,3031,3018,3033,3039,3043,3039,3041,3041,3033,3039,3043,3047,3039,3054,3049,3045,3041,3095,3051,3045,3041,3027,3029,3028,3026,3025,3015,3013,3019,3015,3015,3015,3033,3017,3025,3019,3005,3063,3029,3029,3023,3035,3019,3015,3019,3015,3017,2999,2999,3003,3001,2999,2998,2997,2991,3002,2995,3027,2997,2991,2991,2982,2975,2977,2995,2977,2963,2967,2971,2967,2959,2971,2977,2983,2986,2995,2989,3025,3031,2997,2997,2991,2995,2986,3039,2983,2987,3019,2983,2977,2999,2975,2959,2961,2955,2951,2979,2993,2953,2951,2945,2941,2941,2971,2946,2951,2945,2942,2939,2938,2951,2939,2938,2935,2955,2942,2927,2967,2949,2955,2935,2931,2933,2931,2935,2933,2925,2933,2935,2927,2927,2931,2922,2917,2921,2917,2918,2965,2926,2919,2907,2913,2946,2913,2914,2920,2917,2927,2930,2935,2948,2959,2946,2951,2947,2945,2937,2984,2955,2955,2967,2949,2947,2939,2939,2971,2937,2937,2933,2939,2943,2943,2935,2939,2957,2935,2939,2983,2951,2954,2948,2949,2953,2955,2947,2947,2946,2941,2979,2935,2939,2932,2931,2931,2937,2932,2929,2969,2937,2935,2921,2929,2929,2919,2918,2923,2921,2907,2909,2913,2915,2909,2907,2913,2906,2917,2913,2953,2911,2905,2933,2923,2929,2935,2938,2944,2954,2953,2955,2951,2951,2955,2951,2949,2973,2953,2955,2988,2971,2955,2949,2955,2949,2966,2939,2947,2933,2935,2939,2935,2937,2933,2933,2939,2941,2935,2941,2997,2951,2951,2947,2951,2941,2935,2946,2943,2939,2931,2938,2937,2935,2934,2929,2932,2929,2932,2922,2975,2932,2932,2938,2929,2923,2923,2925,2929,2927,2927,2927,2951,2927,2923,2919,2919,2919,2919,2917,2959,2947,2935,2931,2939,2957,2974,2951,2957,2957,2975,2957,2955,2953,2954,2965,2957,2951,2943,2947,2991,2963,2947,2946,2949,2945,2943,2941,2943,2934,2935,2935,2935,2951,2935,2935,2939,2933,2968,2935,2969,2935,2933,2927,2923,2923,2922,2933,2917,2914,2917,2909,2919,2919,2919,2913,2919,2917,2923,2912,2953,2949,2923,2916,2919,2914,2905,2906,2906,2915,2919,2903,2903,2899,2901,2903,2901,2891,2891,2887,2937,2911,2914,2917,2949,2929,2933,2935,2947,2941,2939,2935,2935,2934,2935,2933,2939,2931,2938,2934,2961,2935,2945,2934,2931,2931,2929,2953,2935,2931,2933,2927,2927,2927,2930,2923,2923,2927,2934,2927,2949,2931,2929,2931,2932,2927,2923,2917,2921,2917,2918,2911,2903,2905,2909,2911,2905,2902,2897,2923,2939,2905,2897,2891,2889,2889,2889,2890,2891,2881,2887,2893,2886,2918,2883,2887,2891,2886,2893,2901,2945,2919,2949,2929,2919,2923,2927,2936,2928,2923,2923,2927,2926,2923,2920,2917,2938,2919,2917,2917,2953,2955,2922,2909,2913,2931,2903,2917,2901,2901,2898,2903,2899,2897,2902,2891,2891,2881,2885,2895,2923,2898,2891,2885,2887,2885,2871,2875,2879,2881,2881,2879,2883,2879,2871,2893,2899,2903,2895,2893,3060,3067,3155,3071,2964,3073,3157,3100,3030,3011,3063,3171,3073,2965,3071,3075,3142,3061,2943,3031,3171,3091,3006,2991,3029,3159,3074,2939,3045,3071,3119,3034,2954,3025,3143,3055,2980,3003,3037,3173,2959,2979,3119,3034,2931,3009,3019,3109,3021,2908,2995,3107,3051,2953,2957,3009,3127,3049,2939,3039,3103,3107,3035,2959,3035,3141,3069,2970,3033,3127,3223,3079,3011,3026,3107,3061,2987,2979,3018,3141,3077,2933,3034,3049,3093,3025,2929,3021,3133,3058,2957,3006,3013,3127,3031,2921,3029,3095,3053,2999,2963,3015,3129,3031,2909,3018,3011,3087,3005,2911,2954,3115,3015,2941,2967,3001,3090,3017,2887,3087,3051,2933,3031,3103,3056,2979,2979,3019,3141,3035,2925,3029,3051,3087,3016,2931,3006,3121,3034,2947,3047,3022,3099,3027,2909,2999,3095,3034,2950,2973,3039,3191,3049,2939,3061,3033,3041,2943,2933,2971,3143,2995,2889,2991,3027,3025,2975,2899,2963,3071,2991,2880,2969,2975,3059,2971,2859,2947,3085,2989,2921,2947,2963,3068,2983,2867,2967,3035,2987,2906,2903,2938,3055,2957,2838,2951,2987,3003,2925,2866,2998,3079,2989,2982,3034,3078,3103,3083,2903,2986,3087,3013,2915,2987,2983,3073,2989,2881,2999,3085,3031,2931,2935,2977,3063,2995,2874,2975,3051,3011,2922,2925,2969,3083,2987,2875,2983,3033,3031,2958,2931,2955,3106,3006,2917,2975,3003,3037,2954,2886,2953,3067,2967,2861,2934,2999,3038,3013,2873,2955,3093,2983,2875,2931,2949,3027,2944,2839,2931,3029,2949,2873,2916,2935,3018,2943,2824,2919,2995,2943,2913,2889,2921,3045,2966,2844,2953,3029,3017,2910,2903,2937,3083,2971,2870,2951,3015,2999,2943,2869,2971,3074,2989,2869,3028,3055,3059,2997,2989,2949,3067,2979,2869,2965,3009,3041,2951,2865,2951,3059,3007,2893,2948,2973,3027,2949,2861,2930,3046,2962,2861,2928,2939,3015,2938,2847,2923,3031,2971,2863,2927,2949,3027,2931,2834,2926,3012,3029,2867,2875,2895,3011,2927,2809,2919,3031,2955,2873,2915,2969,3019,2943,2806,2915,2983,2941,2891,2883,2919,3047,2976,2855,2951,3038,2999,2931,2901,2957,3063,2977,2881,2971,3005,3011,2943,2895,2939,3077,2983,2858,2957,2987,3003,2934,2855,2926,3055,2951,2842,2993,3019,3014,2925,2859,2929,3091,2983,2894,2991,2967,3061,2923,2849,2915,3037,2931,2853,2902,2949,2991,2923,2811,2911,3018,2933,2858,2911,2923,2991,2898,2821,2883,3007,2911,2836,2883,2912,2963,2885,2798,2895,3007,2913,2804,2895,2885,2962,2879,2805,2883,2997,2915,2837,2911,2938,3015,2933,2861,2959,3059,2943,2963,3029,2963,2855,2941,3035,2973,2875,2939,2923,3039,2961,2851,2930,3029,2963,2876,2913,2925,3045,2937,2825,2919,3027,2953,2871,2887,2919,3091,2963,2853,2991,2985,2953,2865,2867,2893,3013,2915,2829,2911,2977,2941,2855,2857,2893,3011,2911,2783,2895,2967,2931,2863,2868,2907,3022,2943,2845,2929,3027,2963,2917,2890,2933,3025,2951,2821,2911,2957,2967,2871,2859,2900,3027,2941,2829,2910,2973,2949,2931,2903,2925,3018,2931,2806,2905,2965,2953,2867,2854,2893,3007,2929,2805,2905,2959,2941,2867,2837,2917,3011,2925,2793,2890,2971,2927,2849,2819,2869,2985,2902,2771,2877,2941,2913,2832,2833,2867,2981,2908,2793,2891,2935,2924,2857,2837,2874,2983,2925,2792,2965,3013,2985,2923,2947,2917,3037,2945,2823,2963,2987,2959,2903,2857,2911,3029,2943,2823,2913,2971,2957,2879,2857,2897,3023,2931,2817,2901,2959,2949,2861,2835,2891,2995,2917,2797,2883,2968,2943,2858,2852,2903,3011,2927,2816,2915,2997,2931,2843,2902,2902,3025,2937,2839,2937,3017,2917,2841,2839,2895,2971,2915,2795,2886,2985,2918,2775,2878,2879,3003,2891,2789,2879,3003,2923,2847,2907,2931,3011,2943,2831,2927,3039,2955,2863,2917,2941,3021,2933,2874,2933,3047,2927,2869,2939,2953,3019,2929,2841,2910,3031,2943,2888,2919,2959,3011,2951,2823,2911,3061,2942,2823,2931,2935,2991,2901,2835,2896,3019,2933,2825,2881,2940,2949,2899,2819,2887,3001,2923,2823,2916,2970,2957,2874,2840,2871,3002,2903,2795,2890,2965,2973,2851,2849,2879,2997,2907,2779,2891,3006,2927,2851,2883,3031,3071,2943,2849,2949,3035,2966,2893,3017,2941,3029,2946,2845,2923,3043,2967,2899,2897,2941,3024,2939,2830,2909,3035,2951,2825,2932,2938,3003,2913,2839,2903,3034,2943,2898,2911,2997,2995,2925,2839,2915,3027,2939,2816,2922,2959,2967,2883,2846,2893,3007,2911,2807,2951,2990,2951,2919,2987,2901,2787,2874,2999,2939,2851,2891,2935,3027,2945,2829,2929,3110,2950,2831,2931,2943,3017,2955,2852,2927,3043,2959,2849,2931,3031,3007,2927,2881,2947,3029,2931,2827,2915,2981,2971,2899,2879,2945,3045,2943,2822,2913,2985,2950,2879,2877,2915,3018,2927,2817,2927,3007,2931,2847,2871,2899,2993,2935,2819,2899,3003,2915,2831,2892,2909,2975,2880,2807,2875,3001,2885,2793,2881,2913,2911,2943,2868,2951,2837,2929,3023,2955,2863,2901,2915,3013,2923,2811,2903,3011,2927,2827,2883,2887,2986,2887,2793,2915,3003,2911,2819,2889,2905,2958,2891,2799,2955,3039,2939,2744,2969,2901,2943,2856,2797,2841,2979,2899,2773,2869,2922,2915,2838,2825,2859,2967,2893,2767,2867,2947,2899,2808,2822,2845,2953,2867,2753,2867,2977,2879,2794,2843,2855,2926,2851,2750,2845,2955,2869,2762,2843,2875,2929,2834,2751,2843,2949,2941,2817,2925,2943,2989,2843,2815,2870,2975,2875,2779,2843,2944,2886,2824,2803,2853,2955,2871,2738,2887,2950,2887,2791,2845,2857,2943,2851,2743,2833,2954,2875,2774,2841,2857,2892,2847,2756,2833,2949,2881,2757,2851,2887,2885,2803,2755,2821,2935,2851,2739,2861,2947,2893,2874,2823,2802,2911,2823,2723,2842,2935,2845,2749,2799,2831,2879,2811,2721,2795,2895,2815,2692,2799,2795,2839,2760,2716,2759,2895,2797,2689,2793,2847,2823,2747,2731,2770,2895,2799,2697,2797,2882,2829,2765,2787,2802,2902,2813,2723,2830,2925,2873,2744,2889,2807,2898,2797,2727,2787,2913,2829,2705,2803,2821,2839,2767,2728,2765,2887,2848,2699,2791,2869,2837,2750,2739,2771,2905,2803,2688,2762,2881,2807,2747,2731,2773,2859,2793,2677,2799,2871,2811,2693,2779,2795,2861,2771,2690,2774,2889,2795,2779,2775,2861,2820,2778,2764,2719,2867,2827,2683,2765,2843,2801,2715,2715,2739,2859,2779,2655,2753,2852,2778,2683,2751,2756,2839,2765,2657,2761,2883,2795,2690,2775,2817,2859,2781,2703,2783,2915,2811,2692,2799,2821,2831,2729,2730,2769,2891,2835,2709,2758,2859,2821,2772,2815,2864,2934,2887,2671,2767,2879,2799,2703,2769,2787,2855,2778,2669,2779,2889,2793,2677,2770,2797,2819,2747,2672,2742,2859,2755,2639,2757,2816,2783,2734,2687,2729,2839,2795,2650,2751,2837,2769,2705,2723,2743,2827,2725,2649,2721,2841,2733,2655,2704,2799,2805,2707,2709,2771,2664,2741,2845,2769,2666,2733,2767,2817,2725,2643,2719,2831,2739,2610,2711,2757,2773,2689,2651,2715,2825,2726,2628,2711,2784,2746,2741,2700,2717,2863,2739,2605,2706,2779,2727,2634,2682,2673,2781,2743,2613,2685,2792,2719,2621,2692,2709,2769,2691,2603,2653,2795,2701,2579,2673,2727,2735,2639,2623,2693,2795,2703,2584,2684,2762,2711,2626,2647,2679,2775,2689,2575,2663,2783,2711,2611,2692,2835,2818,2706,2781,2704,2583,2681,2779,2715,2622,2675,2693,2769,2687,2589,2657,2783,2692,2578,2678,2719,2726,2669,2639,2669,2781,2689,2573,2659,2755,2689,2659,2661,2652,2779,2711,2559,2643,2770,2681,2569,2667,2718,2725,2637,2575,2634,2755,2655,2585,2647,2715,2655,2597,2579,2625,2703,2649,2515,2622,2733,2659,2603,2659,2679,2734,2656,2588,2647,2766,2687,2573,2659,2708,2711,2643,2602,2647,2759,2675,2558,2579,2487,2487,2477,2473,2473,2474,2467,2467,2466,2469,2463,2463,2459,2459,2458,2451,2453,2459,2453,2441,2491,2463,2461,2447,2447,2453,2500,2453,2455,2455,2451,2447,2445,2447,2443,2437,2445,2443,2446,2443,2477,2458,2453,2456,2467,2465,2471,2471,2478,2479,2479,2476,2454,2483,2475,2467,2469,2464,2467,2465,2507,2471,2474,2471,2474,2474,2469,2471,2463,2478,2475,2475,2471,2474,2471,2471,2474,2475,2471,2471,2517,2477,2480,2471,2469,2475,2466,2466,2462,2463,2459,2451,2451,2453,2457,2458,2455,2457,2459,2452,2500,2467,2464,2450,2452,2457,2451,2447,2443,2445,2439,2437,2437,2443,2438,2435,2427,2429,2433,2439,2475,2483,2453,2452,2453,2461,2462,2465,2471,2475,2474,2472,2469,2473,2471,2467,2465,2465,2467,2491,2501,2472,2465,2449,2453,2453,2451,2449,2456,2451,2449,2447,2447,2451,2447,2449,2431,2447,2447,2449,2475,2455,2456,2456,2443,2463,2441,2438,2443,2437,2439,2431,2425,2454,2442,2427,2434,2433,2430,2431,2474,2453,2435,2426,2425,2426,2431,2427,2434,2439,2437,2491,2423,2423,2427,2423,2419,2415,2414,2415,2471,2423,2423,2427,2427,2439,2451,2449,2451,2443,2443,2449,2447,2449,2452,2443,2453,2459,2453,2447,2494,2458,2447,2449,2445,2439,2463,2434,2431,2432,2431,2423,2435,2430,2415,2426,2425,2423,2427,2423,2464,2438,2423,2431,2427,2423,2421,2421,2417,2421,2421,2415,2410,2409,2417,2417,2419,2407,2410,2407,2444,2397,2414,2407,2405,2410,2405,2401,2403,2406,2405,2400,2403,2402,2401,2399,2391,2393,2397,2389,2434,2407,2412,2406,2414,2415,2428,2475,2427,2433,2433,2439,2437,2440,2440,2437,2461,2433,2439,2431,2465,2437,2435,2435,2433,2427,2427,2423,2423,2423,2422,2423,2422,2423,2422,2420,2419,2423,2419,2415,2464,2439,2434,2427,2423,2419,2419,2421,2415,2417,2439,2413,2405,2411,2415,2414,2417,2410,2410,2408,2449,2417,2419,2418,2411,2405,2413,2414,2407,2409,2411,2408,2409,2407,2405,2407,2405,2400,2394,2399,2437,2401,2407,2407,2413,2407,2405,2409,2413,2417,2419,2423,2425,2475,2433,2428,2416,2446,2481,2426,2459,2430,2422,2423,2423,2421,2429,2421,2418,2417,2422,2414,2406,2411,2415,2409,2414,2407,2411,2407,2449,2421,2416,2411,2411,2415,2407,2407,2411,2415,2407,2411,2409,2407,2405,2402,2397,2403,2401,2402,2431,2409,2414,2407,2403,2403,2399,2407,2401,2402,2400,2404,2394,2398,2405,2401,2394,2393,2401,2398,2439,2411,2415,2415,2415,2423,2431,2438,2439,2439,2442,2443,2441,2443,2447,2439,2446,2441,2443,2445,2493,2461,2459,2458,2447,2443,2442,2437,2421,2421,2419,2420,2417,2417,2423,2419,2423,2421,2430,2428,2466,2438,2445,2450,2439,2441,2435,2433,2425,2421,2423,2417,2414,2406,2411,2397,2403,2400,2405,2405,2449,2421,2417,2421,2411,2419,2415,2411,2407,2407,2407,2402,2399,2394,2399,2399,2391,2401,2407,2411,2455,2437,2431,2437,2433,2435,2439,2445,2443,2445,2439,2445,2451,2451,2455,2457,2458,2451,2446,2442,2469,2443,2439,2433,2432,2419,2422,2423,2423,2423,2422,2427,2427,2423,2427,2423,2423,2427,2431,2423,2461,2434,2427,2423,2415,2417,2411,2410,2410,2410,2411,2412,2415,2418,2415,2425,2422,2419,2417,2409,2449,2433,2383,2409,2399,2395,2391,2395,2394,2391,2400,2405,2406,2419,2417,2421,2423,2418,2423,2427,2463,2437,2435,2435,2435,2421,2432,2439,2435,2433,2432,2437,2437,2432,2431,2429,2427,2419,2423,2427,2464,2431,2427,2423,2423,2423,2421,2425,2423,2421,2423,2427,2425,2427,2429,2423,2423,2418,2413,2413,2441,2417,2411,2409,2411,2416,2421,2415,2417,2411,2421,2423,2420,2423,2419,2418,2419,2419,2407,2404,2441,2404,2404,2397,2401,2401,2402,2409,2426,2439,2447,2455,2455,2455,2454,2451,2454,2447,2447,2447,2487,2457,2449,2443,2443,2435,2431,2427,2423,2423,2427,2426,2427,2426,2423,2427,2423,2425,2425,2423,2467,2433,2432,2423,2422,2423,2419,2425,2419,2414,2401,2403,2403,2397,2398,2391,2391,2389,2395,2401,2442,2407,2400,2407,2404,2403,2405,2409,2417,2415,2407,2408,2400,2389,2393,2381,2385,2382,2379,2395,2433,2401,2400,2409,2411,2417,2426,2430,2435,2439,2433,2437,2439,2429,2427,2427,2435,2439,2433,2438,2471,2451,2443,2439,2439,2434,2433,2427,2422,2421,2415,2415,2419,2413,2411,2415,2417,2410,2415,2411,2447,2437,2416,2415,2413,2410,2408,2401,2411,2451,2401,2406,2405,2403,2402,2399,2401,2398,2401,2400,2455,2413,2407,2401,2396,2389,2391,2383,2379,2379,2377,2377,2379,2379,2378,2376,2377,2370,2373,2373,2413,2386,2381,2383,2379,2378,2378,2387,2393,2402,2397,2403,2415,2418,2411,2415,2411,2414,2413,2411,2457,2429,2423,2423,2425,2422,2416,2407,2417,2415,2415,2409,2403,2409,2405,2407,2412,2407,2405,2411,2451,2423,2420,2417,2419,2414,2411,2407,2403,2403,2403,2402,2393,2393,2391,2387,2390,2385,2379,2369,2407,2391,2386,2379,2381,2377,2387,2386,2378,2401,2374,2363,2395,2367,2366,2359,2359,2367,2359,2359,2393,2363,2363,2355,2357,2358,2354,2361,2368,2371,2379,2381,2387,2387,2387,2387,2394,2391,2391,2389,2434,2406,2405,2405,2401,2406,2397,2392,2387,2389,2382,2379,2375,2375,2373,2365,2365,2371,2370,2371,2407,2382,2377,2375,2371,2370,2363,2367,2370,2371,2368,2367,2365,2365,2359,2355,2351,2353,2354,2352,2387,2363,2358,2351,2355,2355,2341,2342,2340,2337,2341,2335,2331,2334,2331,2333,2335,2336,2329,2329,2369,2367,2332,2330,2317,2315,2331,2318,2318,2321,2321,2335,2327,2329,2337,2349,2347,2354,2355,2359,2411,2367,2359,2353,2357,2357,2355,2347,2351,2348,2346,2343,2337,2331,2339,2335,2330,2334,2333,2332,2373,2339,2333,2336,2337,2337,2343,2338,2334,2325,2329,2334,2335,2327,2325,2324,2321,2319,2321,2309,2358,2321,2323,2318,2319,2313,2313,2311,2309,2307,2305,2303,2301,2305,2305,2299,2303,2303,2307,2307,2345,2313,2310,2311,2309,2299,2305,2302,2299,2301,2298,2293,2296,2299,2299,2303,2305,2315,2317,2325,2367,2343,2351,2347,2334,2341,2341,2343,2338,2337,2335,2334,2333,2333,2326,2331,2325,2320,2315,2313,2347,2323,2319,2323,2315,2314,2319,2322,2324,2317,2319,2315,2319,2315,2314,2311,2314,2308,2310,2313,2356,2314,2309,2307,2311,2307,2311,2307,2301,2301,2302,2303,2304,2297,2301,2299,2299,2295,2293,2294,2306,2293,2295,2293,2293,2289,2291,2289,2284,2277,2283,2279,2261,2275,2269,2270,2272,2275,2282,2289,2338,2312,2317,2319,2323,2325,2319,2322,2325,2327,2333,2323,2323,2321,2315,2311,2316,2313,2311,2307,2339,2314,2311,2311,2305,2309,2307,2307,2304,2302,2295,2299,2322,2297,2299,2293,2309,2290,2287,2293,2325,2307,2298,2292,2293,2285,2285,2286,2283,2282,2275,2266,2267,2275,2267,2263,2262,2265,2269,2263,2314,2271,2269,2263,2259,2259,2263,2261,2259,2263,2259,2260,2260,2259,2266,2273,2282,2293,2289,2294,2349,2310,2307,2301,2295,2305,2301,2299,2301,2295,2295,2295,2290,2293,2288,2276,2278,2285,2289,2286,2321,2290,2292,2285,2279,2283,2278,2272,2277,2278,2274,2271,2270,2267,2272,2271,2271,2263,2257,2258,2287,2268,2261,2251,2250,2255,2253,2247,2249,2257,2253,2253,2249,2247,2255,2251,2246,2247,2249,2235,2275,2250,2249,2267,2245,2254,2262,2273,2277,2279,2287,2291,2293,2298,2304,2302,2301,2295,2297,2294,2325,2307,2295,2292,2292,2293,2294,2279,2277,2277,2280,2282,2278,2271,2284,2278,2277,2279,2277,2271,2345,2283,2270,2269,2267,2263,2275,2281,2270,2267,2270,2263,2266,2266,2258,2259,2254,2251,2253,2255,2293,2264,2261,2255,2255,2251,2254,2254,2249,2258,2257,2251,2251,2249,2246,2245,2249,2245,2255,2267,2306,2309,2287,2293,2299,2294,2293,2295,2293,2292,2295,2299,2295,2293,2287,2292,2290,2287,2291,2285,2327,2283,2282,2278,2275,2275,2301,2275,2275,2268,2272,2263,2270,2261,2259,2258,2251,2255,2251,2247,2295,2255,2251,2257,2253,2247,2241,2245,2243,2246,2245,2244,2239,2244,2240,2237,2243,2239,2235,2229,2279,2243,2245,2235,2239,2235,2231,2230,2235,2231,2231,2243,2245,2247,2255,2258,2261,2265,2267,2279,2316,2290,2289,2289,2285,2282,2275,2276,2279,2279,2276,2273,2270,2267,2268,2269,2267,2262,2263,2265,2305,2278,2281,2269,2264,2271,2266,2263,2263,2261,2257,2256,2255,2251,2250,2245,2249,2247,2243,2237,2275,2249,2243,2244,2244,2234,2243,2239,2237,2267,2234,2233,2235,2241,2241,2235,2233,2235,2234,2234,2285,2239,2235,2231,2227,2229,2232,2231,2235,2241,2251,2255,2269,2269,2271,2273,2269,2275,2275,2271,2309,2281,2279,2279,2271,2273,2273,2270,2258,2259,2260,2261,2258,2249,2251,2255,2245,2247,2251,2253,2280,2260,2260,2257,2253,2257,2257,2251,2253,2247,2251,2249,2246,2237,2240,2239,2230,2231,2225,2229,2263,2238,2238,2233,2238,2230,2231,2231,2227,2226,2225,2223,2222,2222,2221,2226,2221,2219,2223,2221,2262,2227,2227,2225,2221,2223,2230,2243,2245,2255,2258,2259,2281,2267,2265,2273,2268,2264,2265,2266,2309,2279,2274,2267,2268,2257,2251,2249,2245,2247,2242,2243,2241,2241,2241,2244,2247,2245,2241,2249,2282,2255,2245,2239,2231,2225,2218,2217,2213,2206,2198,2195,2202,2197,2187,2194,2187,2193,2187,2192,2232,2204,2201,2196,2194,2195,2183,2187,2187,2183,2177,2185,2180,2186,2181,2179,2185,2179,2178,2176,2213,2190,2187,2187,2199,2202,2202,2212,2213,2219,2213,2215,2223,2224,2225,2219,2223,2223,2218,2223,2246,2225,2224,2217,2219,2215,2209,2213,2207,2217,2207,2205,2205,2214,2213,2231,2211,2213,2211,2209,2257,2217,2219,2211,2211,2215,2215,2211,2207,2201,2195,2199,2197,2195,2195,2189,2189,2198,2187,2183,2229,2197,2192,2191,2181,2189,2182,2177,2175,2174,2174,2175,2179,2177,2175,2167,2167,2164,2164,2169,2202,2179,2182,2187,2189,2199,2201,2213,2209,2210,2213,2213,2207,2199,2207,2205,2207,2206,2206,2197,2232,2238,2212,2207,2195,2198,2201,2201,2198,2195,2199,2195,2198,2197,2191,2197,2189,2185,2193,2191,2229,2199,2201,2202,2202,2205,2206,2197,2194,2187,2189,2182,2181,2179,2178,2179,2179,2187,2169,2167,2219,2187,2177,2176,2175,2173,2173,2167,2162,2163,2153,2155,2147,2143,2149,2146,2149,2149,2146,2154,2206,2174,2178,2187,2193,2189,2187,2199,2199,2198,2201,2193,2197,2195,2193,2197,2197,2197,2194,2197,2237,2207,2195,2191,2195,2193,2193,2187,2181,2177,2174,2164,2167,2166,2165,2169,2171,2167,2174,2171,2211,2189,2191,2187,2183,2183,2171,2173,2173,2164,2153,2145,2159,2150,2151,2151,2157,2150,2153,2157,2187,2163,2165,2156,2158,2159,2152,2149,2142,2138,2137,2133,2168,2126,2122,2129,2138,2131,2133,2143,2208,2169,2170,2167,2180,2175,2177,2183,2179,2167,2167,2159,2163,2163,2157,2157,2163,2163,2165,2167,2211,2181,2173,2173,2172,2170,2169,2165,2167,2169,2165,2162,2159,2158,2158,2159,2167,2163,2166,2167,2209,2181,2174,2159,2155,2158,2151,2145,2144,2146,2137,2138,2143,2141,2141,2138,2130,2140,2137,2125,2151,2122,2127,2125,2119,2123,2121,2118,2117,2106,2107,2102,2094,2091,2091,2088,2101,2097,2103,2113,2143,2123,2125,2122,2123,2123,2131,2123,2119,2117,2123,2117,2111,2112,2128,2107,2107,2111,2106,2107,2158,2117,2115,2141,2114,2107,2105,2113,2111,2111,2117,2116,2119,2107,2114,2116,2110,2103,2102,2103,2148,2115,2101,2100,2101,2097,2097,2091,2090,2090,2092,2090,2084,2075,2077,2075,2070,2072,2065,2075,2117,2090,2081,2080,2074,2077,2077,2076,2085,2081,2078,2083,2090,2095,2096,2099,2102,2103,2110,2108,2142,2121,2110,2109,2119,2115,2114,2111,2101,2103,2102,2101,2097,2094,2094,2094,2090,2087,2088,2087,2121,2099,2095,2095,2098,2097,2087,2089,2085,2085,2091,2087,2097,2094,2087,2082,2089,2087,2081,2085,2121,2087,2087,2083,2081,2077,2109,2061,2058,2059,2063,2061,2059,2067,2059,2055,2052,2045,2043,2043,2092,2063,2059,2051,2061,2063,2061,2063,2067,2078,2083,2086,2095,2095,2094,2091,2096,2095,2089,2089,2118,2089,2090,2082,2083,2083,2075,2078,2076,2076,2075,2078,2068,2070,2069,2077,2070,2067,2077,2075,2108,2110,2077,2071,2076,2077,2073,2066,2075,2073,2075,2065,2063,2069,2061,2061,2059,2059,2054,2057,2094,2070,2075,2069,2066,2072,2075,2073,2077,2069,2069,2063,2062,2057,2062,2057,2059,2059,2061,2101,2107,2086,2094,2101,2097,2103,2103,2106,2107,2114,2113,2113,2110,2103,2107,2099,2099,2099,2097,2097,2135,2093,2091,2092,2081,2081,2087,2086,2097,2093,2098,2099,2095,2098,2093,2096,2093,2093,2091,2087,2135,2091,2086,2093,2086,2084,2081,2083,2075,2063,2074,2071,2071,2075,2082,2079,2075,2062,2063,2066,2109,2067,2071,2075,2059,2063,2061,2063,2069,2075,2073,2082,2083,2081,2087,2098,2099,2102,2095,2099,2140,2119,2115,2115,2111,2117,2117,2119,2119,2119,2117,2111,2114,2103,2091,2101,2103,2099,2097,2096,2125,2107,2107,2111,2103,2104,2109,2114,2115,2111,2109,2113,2083,2101,2099,2091,2087,2085,2079,2073,2121,2089,2067,2077,2086,2086,2094,2091,2094,2091,2089,2090,2087,2085,2080,2075,2076,2075,2077,2077,2127,2091,2085,2087,2098,2103,2106,2118,2118,2123,2122,2123,2123,2123,2115,2119,2116,2122,2122,2118,2169,2137,2131,2131,2137,2129,2124,2115,2122,2119,2121,2121,2115,2121,2118,2119,2113,2111,2117,2117,2155,2136,2123,2116,2111,2107,2103,2095,2091,2094,2093,2091,2087,2086,2085,2085,2093,2094,2089,2088,2125,2107,2103,2103,2103,2095,2087,2094,2086,2085,2080,2070,2073,2079,2087,2086,2090,2092,2097,2103,2140,2123,2126,2123,2123,2123,2121,2120,2118,2112,2121,2119,2117,2117,2113,2112,2105,2100,2099,2095,2123,2107,2101,2100,2093,2091,2097,2089,2093,2089,2097,2094,2087,2090,2095,2086,2090,2089,2090,2096,2127,2097,2093,2087,2087,2083,2077,2081,2080,2073,2077,2074,2075,2076,2077,2081,2078,2074,2069,2073,2117,2087,2085,2087,2079,2086,2087,2081,2081,2081,2086,2090,2091,2097,2100,2100,2106,2108,2110,2113,2154,2115,2118,2121,2115,2121,2123,2127,2127,2126,2121,2118,2111,2107,2101,2107,2100,2113,2097,2103,2141,2109,2102,2113,2100,2101,2109,2100,2103,2097,2090,2099,2094,2090,2096,2099,2096,2087,2087,2083,2118,2091,2087,2079,2085,2081,2079,2083,2090,2082,2069,2075,2075,2075,2073,2072,2059,2061,2057,2059,2095,2097,2069,2083,2078,2084,2094,2098,2102,2103,2110,2111,2109,2115,2107,2119,2110,2107,2105,2107,2163,2117,2110,2109,2103,2100,2102,2099,2098,2095,2089,2094,2093,2093,2085,2087,2092,2085,2081,2075,2121,2090,2085,2078,2079,2081,2079,2077,2123,2079,2077,2077,2081,2083,2083,2077,2077,2077,2078,2078,2113,2079,2073,2074,2073,2063,2061,2063,2068,2067,2069,2061,2066,2069,2068,2067,2075,2075,2073,2070,2115,2099,2100,2105,2107,2107,2110,2110,2117,2117,2117,2117,2120,2121,2112,2115,2110,2116,2117,2107,2141,2113,2101,2101,2096,2095,2085,2091,2087,2089,2085,2078,2083,2079,2082,2083,2081,2081,2082,2083,2117,2093,2083,2073,2075,2079,2081,2081,2073,2073,2071,2072,2072,2073,2063,2068,2059,2058,2059,2050,2083,2063,2061,2061,2059,2057,2057,2047,2045,2043,2043,2039,2043,2047,2051,2049,2058,2069,2074,2078,2127,2094,2095,2095,2087,2090,2092,2085,2089,2093,2096,2085,2085,2085,2077,2077,2077,2073,2063,2069,2103,2071,2068,2059,2059,2059,2059,2059,2053,2053,2053,2054,2057,2049,2049,2039,2039,2051,2047,2043,2093,2058,2043,2043,2048,2045,2049,2045,2047,2047,2039,2045,2037,2038,2044,2042,2031,2039,2038,2035,2070,2032,2031,2030,2023,2019,2025,2022,2025,2026,2027,2032,2031,2042,2047,2052,2057,2059,2061,2059,2106,2075,2078,2074,2077,2078,2077,2075,2073,2075,2074,2078,2083,2067,2073,2078,2059,2073,2063,2059,2088,2060,2065,2058,2058,2054,2049,2043,2039,2039,2042,2039,2043,2041,2042,2035,2033,2039,2042,2036,2069,2039,2039,2045,2037,2045,2043,2051,2043,2041,2039,2039,2036,2035,2037,2032,2027,2022,2027,2025,2054,2033,2023,2023,2019,2017,2029,2027,2023,2027,2029,2047,2053,2059,2069,2061,2061,2061,2063,2059,2093,2071,2069,2071,2067,2061,2058,2059,2059,2057,2058,2051,2042,2041,2043,2041,2037,2041,2042,2039,2077,2048,2043,2042,2037,2039,2038,2041,2043,2043,2049,2041,2035,2031,2033,2038,2029,2030,2029,2025,2063,2037,2033,2030,2027,2023,2025,2027,2026,2013,2012,2019,2015,2017,2011,2014,2010,2013,2010,2016,2045,2021,2019,2017,2026,2023,2037,2047,2053,2058,2059,2058,2059,2066,2061,2063,2059,2047,2054,2053,2092,2081,2059,2055,2051,2039,2037,2034,2027,2027,2027,2022,2031,2031,2026,2029,2035,2032,2024,2025,2053,2030,2023,2019,2019,2017,2014,2017,2008,2010,2010,2005,2009,2014,2005,2004,2005,2010,1999,2003,2029,2005,2002,2001,2005,1994,1992,1995,1995,1999,1995,1995,1995,1995,2000,2003,2009,2017,2011,2019,2059,2035,2037,2038,2037,2039,2039,2039,2035,2033,2029,2033,2023,2019,2019,2017,2017,2014,2009,2014,2054,2023,2018,2015,2015,2007,1994,2003,2005,2002,1993,1989,1995,1993,1995,1998,1995,1995,1991,1993,2043,2005,1991,1990,1991,1993,1989,1981,1986,1985,1984,1982,1975,1975,1972,1973,1975,1975,1970,1976,2014,1983,1971,1970,1975,1986,1989,2000,2009,2014,2018,2021,2026,2027,2024,2015,2026,2023,2019,2017,2055,2027,2023,2018,2017,2017,2017,2009,2007,2012,2003,2002,1997,2002,2005,2002,2003,2001,1997,1991,2037,2000,1999,1995,1994,1997,1993,1980,1985,1991,1980,1975,1975,1975,1991,1978,1979,1989,1979,1980,2017,2000,1990,1989,1985,1988,1982,1981,1982,1985,1985,1985,1986,1989,1995,2010,2014,2021,2029,2029,2049,2032,2029,2027,2030,2031,2034,2026,2027,2034,2027,2021,2025,2020,2026,2015,2012,2010,2006,2005,2042,2017,2015,2009,2006,2014,2019,2013,2005,2006,2005,2000,2005,1994,2003,1991,1993,1991,1993,1991,2027,1995,1989,1992,1982,1975,1983,1975,1978,1975,1975,1970,1975,1982,1975,1978,1970,1975,1979,1973,2018,1987,1977,1978,1983,1990,1999,2003,2000,2007,2021,2019,2017,2015,2015,2015,2023,2030,2017,2016,2043,2021,2017,2019,2016,2007,2005,2007,2003,1991,1993,1989,1993,1994,1991,1987,1987,1985,1989,1983,2021,1989,1991,1991,1983,1983,1990,1987,1983,1977,1973,1966,1969,1966,1963,1967,1966,1961,1961,1959,1990,1966,1967,1965,1961,1958,1956,1956,1953,1941,1945,1953,1948,1947,1953,1954,1966,1969,1982,1983,2017,2003,2004,2009,2005,2007,2004,2005,2008,2008,2003,2011,2004,2003,2005,2007,2006,2001,1997,1998,2027,2001,1993,1987,2031,1994,1990,1987,1989,1983,1984,1984,1982,1975,1978,1982,1981,1975,1968,1971,2016,1983,1978,1971,1970,1959,1959,1961,1957,1955,1953,1957,1959,1957,1969,1953,1953,1952,1952,1951,1986,1974,1953,1952,1957,1954,1951,1951,1955,1961,1962,1963,1966,1972,1973,1978,1985,1991,1989,1993,2039,1998,1990,1991,1994,1991,1994,1991,1992,1995,1987,1977,1973,1974,1973,1973,1976,1971,1972,1969,2018,1975,1979,1975,1977,1971,1975,1975,1971,1975,1971,1963,1970,1971,1967,1963,1961,1958,1954,1954,1999,1966,1967,1964,1962,1962,1958,1947,1950,1947,1953,1951,1952,1949,1946,1941,1939,1939,1943,1933,1969,1951,1946,1949,1944,1952,1957,1962,1971,1975,1982,1986,1982,1987,1990,1987,1986,1990,2000,1997,2023,2003,2000,2005,1995,1991,1997,1989,1985,1987,1985,1984,1978,1975,1980,1987,1977,1975,1983,1979,2024,1990,1987,1985,1985,1983,1977,1976,1976,1973,1977,1973,1977,1978,1973,1971,1973,1973,1975,1974,1999,1982,1981,1973,1973,1961,1971,1967,1971,1964,1967,1962,1965,1959,1962,1962,1957,1955,1967,1955,1993,1964,1965,1972,1978,1985,1993,1995,2011,1999,2009,2007,2009,2013,2011,2005,2003,2005,2009,2005,2041,2010,2003,1994,1994,1989,1969,1985,1975,1975,1985,1989,1991,1990,1985,1983,1985,1981,1975,1983,2018,1983,1989,1980,1983,1973,1979,1979,1981,1970,1971,1967,1962,1969,1964,1966,1964,1963,1968,1969,2005,1961,1964,1959,1955,1956,1947,1951,1951,1949,1951,1948,1947,1951,1950,1957,1959,1955,1959,1968,2009,1984,1989,1990,1995,1998,1994,1999,1999,1995,2000,2002,1995,1998,1997,1991,1992,1986,1982,1979,2007,1979,1979,1977,1972,1968,1981,1973,1974,1977,1971,1979,1974,1971,1969,1966,1966,1957,1963,1967,2003,1970,1969,1962,1966,1960,1954,1953,1954,1954,1948,1950,1946,1947,1943,1946,1946,1949,1939,1938,1973,1942,1939,1935,1929,1930,1933,1931,1927,1927,1934,1940,1945,1951,1955,1967,1967,1972,1969,1969,2003,1978,1973,1972,1971,1971,1965,1959,1965,1962,1958,1959,1954,1955,1960,1951,1953,1959,1946,1945,1983,1959,1958,1945,1941,1943,1939,1935,1933,1930,1925,1926,1930,1925,1919,1921,1925,1921,1921,1911,1956,1927,1921,1921,1919,1918,1914,1917,1922,1917,1909,1903,1903,1901,1909,1902,1895,1898,1903,1901,1956,1930,1931,1934,1935,1952,1950,1949,1943,1948,1950,1941,1951,1941,1940,1940,1933,1937,1928,1923,1963,1949,1911,1907,1909,1909,1915,1923,1919,1923,1925,1928,1931,1933,1931,1931,1918,1923,1925,1919,1955,1923,1921,1914,1919,1915,1911,1909,1909,1911,1912,1910,1904,1905,1906,1904,1897,1894,1889,1887,1927,1902,1893,1890,1890,1894,1887,1887,1881,1889,1894,1892,1904,1908,1911,1915,1919,1915,1919,1911,1941,1929,1935,1930,1930,1926,1924,1919,1911,1916,1920,1911,1911,1906,1909,1909,1905,1898,1905,1907,1939,1913,1918,1909,1914,1907,1911,1903,1900,1903,1907,1903,1899,1899,1898,1865,1891,1883,1880,1881,1910,1889,1887,1886,1883,1881,1887,1883,1879,1877,1877,1879,1879,1872,1877,1874,1873,1877,1879,1890,1919,1905,1910,1914,1925,1920,1925,1917,1917,1911,1914,1909,1904,1907,1910,1911,1909,1909,1915,1914,1942,1919,1914,1909,1911,1908,1903,1899,1898,1887,1889,1889,1893,1891,1887,1891,1892,1892,1894,1893,1926,1893,1889,1884,1888,1887,1875,1876,1873,1877,1867,1870,1870,1870,1869,1865,1868,1878,1867,1868,1905,1870,1866,1866,1874,1863,1859,1871,1876,1882,1887,1893,1899,1894,1902,1902,1907,1910,1901,1898,1945,1909,1907,1906,1910,1905,1904,1898,1895,1887,1894,1884,1890,1889,1885,1879,1885,1891,1885,1879,1923,1885,1875,1874,1873,1867,1864,1861,1868,1868,1861,1861,1858,1857,1860,1851,1854,1855,1855,1847,1882,1857,1856,1842,1842,1850,1844,1843,1840,1844,1840,1841,1841,1841,1844,1845,1840,1858,1862,1874,1910,1891,1905,1902,1902,1902,1897,1893,1890,1894,1887,1886,1889,1887,1877,1883,1879,1877,1876,1876,1901,1883,1871,1873,1871,1875,1876,1870,1859,1863,1868,1866,1866,1861,1858,1851,1858,1855,1856,1854,1884,1846,1854,1858,1851,1839,1847,1845,1843,1842,1834,1835,1835,1830,1835,1833,1835,1834,1831,1829,1852,1834,1831,1831,1826,1823,1827,1823,1827,1829,1835,1837,1834,1840,1851,1863,1863,1863,1864,1865,1893,1875,1875,1867,1875,1870,1860,1867,1857,1859,1850,1854,1851,1842,1840,1838,1837,1839,1843,1835,1874,1844,1849,1839,1835,1832,1831,1835,1830,1831,1827,1831,1831,1830,1826,1831,1816,1819,1825,1823,1866,1829,1831,1831,1825,1823,1817,1821,1815,1811,1820,1816,1812,1812,1803,1807,1815,1807,1809,1815,1849,1837,1816,1810,1809,1807,1814,1823,1823,1829,1836,1851,1845,1852,1847,1851,1852,1847,1847,1847,1887,1853,1847,1847,1854,1843,1833,1833,1835,1838,1831,1824,1836,1827,1829,1828,1828,1830,1825,1834,1873,1834,1830,1819,1826,1825,1825,1822,1820,1818,1816,1817,1811,1813,1809,1814,1813,1807,1803,1809,1855,1817,1818,1811,1803,1804,1799,1803,1803,1801,1802,1798,1799,1799,1796,1787,1795,1794,1795,1801,1845,1819,1822,1826,1837,1841,1845,1839,1843,1845,1845,1847,1840,1841,1838,1835,1833,1833,1827,1829,1859,1831,1817,1815,1823,1819,1816,1822,1823,1824,1822,1825,1825,1825,1815,1811,1814,1819,1816,1817,1843,1823,1815,1811,1812,1811,1809,1801,1803,1803,1813,1806,1803,1808,1808,1802,1799,1797,1786,1791,1818,1789,1790,1787,1785,1791,1783,1778,1781,1783,1785,1783,1780,1791,1799,1803,1813,1826,1826,1828,1856,1839,1846,1838,1837,1830,1835,1831,1828,1830,1826,1825,1820,1816,1817,1815,1815,1803,1803,1803,1841,1818,1811,1814,1812,1813,1807,1803,1803,1812,1805,1800,1802,1802,1809,1803,1802,1802,1803,1802,1836,1804,1803,1797,1786,1782,1791,1796,1791,1783,1782,1781,1787,1781,1782,1778,1777,1789,1780,1771,1807,1779,1775,1777,1776,1778,1783,1787,1795,1803,1805,1809,1803,1815,1817,1813,1805,1803,1817,1815,1855,1821,1809,1807,1803,1799,1795,1798,1795,1791,1787,1791,1799,1795,1794,1800,1795,1794,1786,1787,1831,1797,1787,1787,1796,1789,1783,1783,1786,1786,1781,1783,1781,1778,1774,1773,1773,1778,1775,1775,1817,1780,1783,1789,1793,1787,1786,1783,1783,1794,1781,1777,1774,1769,1774,1781,1787,1783,1797,1795,1830,1817,1819,1819,1821,1820,1823,1820,1816,1818,1815,1809,1818,1813,1809,1805,1811,1802,1813,1834,1850,1824,1822,1824,1813,1809,1805,1799,1796,1797,1785,1786,1785,1785,1783,1786,1786,1791,1783,1794,1833,1806,1796,1785,1790,1793,1783,1793,1783,1782,1780,1779,1769,1767,1774,1765,1770,1768,1779,1780,1825,1811,1816,1823,1825,1828,1827,1825,1823,1815,1811,1814,1811,1805,1805,1805,1814,1810,1807,1808,1845,1823,1817,1821,1823,1819,1814,1810,1813,1811,1813,1815,1807,1809,1803,1805,1806,1802,1802,1797,1818,1826,1789,1783,1785,1783,1793,1787,1792,1782,1782,1783,1783,1780,1783,1789,1783,1781,1771,1762,1810,1773,1771,1766,1768,1777,1779,1783,1797,1803,1805,1813,1805,1820,1825,1826,1828,1824,1823,1827,1856,1830,1827,1821,1809,1795,1806,1799,1783,1775,1783,1783,1775,1779,1783,1785,1790,1792,1789,1782,1823,1803,1797,1797,1783,1785,1790,1787,1791,1786,1791,1796,1785,1787,1797,1787,1789,1787,1795,1799,1841,1802,1799,1805,1805,1799,1802,1796,1797,1792,1785,1797,1794,1801,1803,1812,1817,1815,1818,1817,1863,1827,1827,1829,1830,1831,1841,1838,1841,1842,1842,1843,1838,1827,1827,1821,1811,1789,1807,1802,1845,1811,1820,1822,1816,1819,1817,1815,1819,1823,1825,1826,1825,1828,1819,1813,1809,1805,1795,1796,1841,1799,1796,1798,1795,1799,1798,1802,1800,1810,1811,1809,1802,1797,1802,1809,1801,1797,1804,1803,1857,1825,1823,1829,1842,1837,1847,1855,1862,1859,1857,1863,1863,1863,1859,1862,1863,1863,1870,1863,1906,1867,1862,1863,1857,1855,1857,1851,1854,1857,1855,1856,1859,1861,1858,1861,1853,1851,1857,1854,1895,1867,1862,1859,1859,1854,1850,1849,1846,1842,1839,1838,1837,1835,1827,1829,1827,1822,1816,1807,1849,1826,1823,1823,1819,1821,1822,1818,1828,1835,1840,1842,1844,1845,1840,1845,1847,1850,1851,1853,1889,1871,1870,1870,1873,1858,1851,1849,1846,1841,1835,1829,1826,1818,1829,1825,1831,1826,1823,1822,1866,1842,1841,1845,1841,1841,1836,1824,1825,1819,1813,1811,1811,1809,1811,1817,1789,1808,1802,1803,1831,1811,1811,1801,1803,1802,1802,1799,1809,1811,1806,1806,1811,1822,1824,1832,1839,1841,1872,1841,1888,1867,1866,1859,1851,1876,1872,1870,1872,1877,1881,1888,1880,1887,1887,1882,1889,1880,1882,1877,1899,1881,1880,1873,1903,1865,1855,1847,1855,1849,1855,1858,1855,1863,1858,1851,1863,1867,1859,1861,1879,1858,1851,1844,1842,1832,1829,1825,1823,1825,1813,1818,1810,1818,1820,1816,1817,1815,1815,1813,1848,1830,1825,1827,1825,1837,1842,1861,1871,1871,1883,1886,1887,1885,1889,1887,1890,1895,1894,1891,1929,1903,1901,1898,1889,1887,1884,1877,1875,1873,1877,1877,1875,1879,1880,1875,1869,1867,1874,1867,1915,1899,1905,1878,1875,1875,1870,1867,1870,1861,1861,1866,1863,1856,1861,1853,1847,1851,1849,1847,1891,1854,1847,1856,1847,1851,1853,1868,1846,1855,1873,1861,1859,1855,1854,1850,1847,1859,1869,1877,1917,1887,1902,1908,1912,1907,1915,1915,1911,1915,1911,1901,1906,1905,1903,1904,1904,1911,1897,1898,1941,1901,1899,1897,1898,1901,1902,1899,1869,1898,1895,1887,1888,1876,1879,1889,1875,1880,1877,1874,1913,1882,1875,1877,1862,1866,1863,1872,1861,1850,1851,1856,1855,1856,1849,1841,1845,1846,1842,1849,1881,1855,1843,1853,1848,1846,1845,1847,1843,1862,1883,1873,1887,1887,1892,1891,1889,1893,1904,1904,1933,1908,1907,1903,1899,1895,1891,1882,1879,1872,1873,1869,1876,1865,1862,1867,1863,1863,1870,1867,1900,1876,1876,1869,1871,1869,1864,1873,1847,1861,1861,1857,1857,1787,1856,1853,1847,1842,1847,1845,1869,1850,1839,1846,1842,1837,1840,1839,1845,1839,1843,1839,1843,1845,1838,1843,1839,1834,1834,1839,1882,1866,1865,1871,1883,1882,1890,1895,1891,1898,1891,1889,1891,1889,1895,1882,1893,1888,1885,1885,1903,1889,1882,1877,1874,1866,1865,1869,1863,1857,1859,1859,1863,1859,1851,1858,1858,1859,1851,1857,1889,1861,1855,1854,1864,1854,1847,1847,1848,1845,1846,1840,1839,1853,1835,1837,1830,1829,1834,1825,1857,1835,1833,1827,1822,1809,1821,1813,1818,1813,1813,1822,1818,1822,1828,1839,1851,1857,1859,1870,1907,1888,1889,1888,1882,1882,1872,1877,1878,1875,1870,1867,1871,1871,1864,1862,1863,1855,1854,1854,1878,1858,1851,1845,1851,1839,1843,1844,1847,1845,1842,1842,1834,1839,1836,1834,1833,1829,1824,1829,1861,1829,1811,1815,1820,1823,1816,1819,1820,1813,1817,1820,1816,1812,1803,1799,1801,1806,1799,1798,1840,1803,1803,1799,1797,1801,1801,1795,1802,1807,1820,1827,1826,1842,1846,1819,1847,1848,1845,1845,1875,1853,1849,1847,1846,1843,1839,1834,1834,1834,1831,1826,1823,1822,1812,1812,1821,1810,1807,1805,1857,1827,1815,1817,1812,1820,1817,1813,1816,1808,1802,1807,1799,1803,1801,1802,1798,1798,1789,1790,1830,1800,1798,1795,1789,1786,1787,1783,1783,1783,1771,1777,1781,1782,1775,1777,1771,1777,1770,1774,1812,1800,1783,1791,1805,1815,1818,1846,1819,1795,1831,1817,1824,1826,1823,1824,1815,1815,1815,1821,1851,1823,1807,1807,1803,1799,1801,1795,1802,1795,1783,1789,1794,1789,1783,1790,1790,1794,1790,1790,1821,1801,1793,1787,1779,1779,1781,1779,1776,1773,1767,1763,1762,1765,1762,1761,1764,1761,1766,1758,1795,1774,1767,1761,1758,1749,1745,1754,1763,1750,1748,1746,1743,1741,1745,1753,1756,1765,1771,1768,1827,1807,1803,1800,1803,1801,1807,1795,1798,1797,1793,1793,1793,1795,1792,1789,1787,1782,1786,1775,1807,1779,1770,1776,1776,1767,1771,1773,1771,1770,1773,1764,1758,1762,1759,1759,1752,1760,1755,1753,1775,1760,1755,1726,1746,1744,1755,1751,1746,1750,1749,1748,1742,1741,1739,1742,1738,1731,1739,1731,1763,1783,1740,1738,1734,1727,1735,1737,1736,1748,1760,1766,1780,1781,1781,1790,1783,1783,1779,1778,1805,1781,1778,1771,1774,1773,1771,1769,1761,1760,1761,1755,1747,1755,1763,1744,1758,1761,1764,1766,1719,1771,1761,1761,1757,1755,1756,1755,1746,1744,1748,1747,1744,1743,1738,1742,1743,1743,1745,1745,1773,1753,1752,1747,1743,1746,1748,1750,1741,1738,1741,1733,1734,1729,1736,1731,1732,1730,1739,1743,1770,1761,1769,1771,1779,1771,1771,1775,1775,1776,1770,1770,1769,1770,1776,1773,1767,1763,1755,1758,1796,1765,1763,1760,1766,1757,1759,1761,1765,1761,1770,1760,1754,1755,1750,1749,1743,1745,1735,1738,1766,1742,1751,1741,1734,1743,1739,1739,1737,1728,1737,1733,1731,1722,1731,1730,1723,1722,1729,1728,1763,1737,1726,1727,1727,1732,1729,1734,1749,1751,1752,1754,1756,1758,1763,1760,1762,1760,1763,1759,1795,1763,1767,1764,1755,1749,1748,1735,1731,1731,1736,1743,1735,1726,1733,1730,1748,1736,1733,1734,1785,1755,1758,1749,1745,1741,1741,1741,1743,1731,1729,1729,1726,1732,1727,1733,1725,1725,1726,1727,1762,1729,1730,1734,1725,1723,1715,1726,1713,1718,1719,1730,1731,1733,1755,1754,1754,1761,1771,1771,1811,1776,1767,1764,1770,1762,1765,1761,1755,1678,1756,1751,1762,1747,1742,1751,1743,1742,1738,1735,1778,1749,1741,1745,1741,1732,1734,1737,1734,1735,1736,1744,1732,1725,1730,1730,1727,1719,1731,1719,1765,1737,1720,1718,1717,1710,1713,1731,1710,1716,1714,1712,1715,1716,1721,1730,1733,1738,1742,1755,1799,1779,1770,1774,1769,1763,1762,1761,1761,1761,1759,1761,1753,1747,1757,1759,1758,1750,1761,1750,1793,1763,1762,1758,1757,1745,1745,1752,1749,1810,1746,1748,1742,1739,1738,1737,1734,1738,1732,1728,1777,1737,1732,1743,1740,1733,1730,1736,1727,1729,1727,1723,1717,1711,1710,1703,1706,1698,1708,1709,1754,1723,1718,1721,1729,1739,1744,1758,1763,1770,1775,1776,1777,1771,1770,1775,1770,1759,1761,1770,1809,1775,1771,1763,1773,1763,1766,1768,1774,1763,1759,1770,1773,1774,1767,1767,1775,1773,1771,1766,1799,1791,1767,1768,1766,1763,1759,1764,1753,1750,1758,1751,1759,1753,1749,1743,1750,1743,1743,1745,1781,1745,1743,1747,1749,1741,1735,1740,1733,1735,1735,1716,1733,1741,1745,1760,1774,1769,1773,1792,1834,1803,1803,1801,1802,1799,1797,1797,1801,1797,1795,1798,1789,1795,1787,1795,1787,1786,1786,1782,1822,1781,1779,1778,1775,1769,1765,1769,1760,1757,1757,1762,1765,1765,1763,1763,1772,1771,1768,1770,1803,1773,1768,1769,1769,1761,1758,1760,1760,1751,1751,1758,1748,1747,1744,1737,1739,1737,1731,1733,1781,1750,1749,1747,1747,1747,1756,1761,1773,1781,1787,1798,1795,1794,1802,1797,1799,1791,1793,1797,1841,1808,1802,1801,1799,1796,1801,1805,1802,1799,1793,1799,1795,1797,1797,1875,1786,1781,1783,1783,1835,1787,1792,1782,1779,1786,1783,1782,1777,1776,1777,1770,1759,1762,1760,1754,1751,1752,1749,1755,1789,1754,1758,1756,1749,1751,1749,1747,1741,1738,1733,1737,1731,1732,1737,1746,1739,1741,1745,1749,1799,1773,1783,1794,1798,1806,1807,1806,1807,1807,1811,1809,1809,1805,1811,1803,1803,1803,1803,1797,1842,1801,1798,1801,1791,1807,1787,1786,1779,1779,1780,1779,1774,1771,1770,1769,1771,1768,1766,1761,1810,1781,1777,1776,1767,1770,1771,1774,1775,1773,1770,1772,1767,1760,1761,1755,1750,1735,1745,1746,1786,1749,1751,1743,1749,1743,1739,1742,1737,1737,1735,1729,1731,1733,1724,1729,1729,1745,1757,1761,1819,1793,1795,1805,1807,1811,1811,1800,1795,1795,1794,1799,1796,1791,1788,1793,1793,1791,1793,1781,1832,1816,1793,1787,1790,1787,1786,1783,1782,1780,1775,1774,1770,1774,1781,1780,1779,1780,1779,1779,1807,1781,1782,1777,1775,1773,1779,1777,1773,1773,1767,1763,1758,1759,1758,1754,1752,1757,1758,1758,1798,1766,1758,1758,1754,1754,1751,1755,1750,1766,1770,1779,1794,1799,1803,1810,1807,1805,1809,1803,1848,1807,1803,1799,1805,1800,1799,1786,1793,1798,1797,1796,1795,1793,1791,1795,1793,1787,1782,1779,1817,1791,1787,1781,1777,1776,1775,1779,1773,1771,1769,1767,1770,1770,1765,1763,1765,1758,1757,1753,1793,1755,1751,1744,1750,1745,1739,1739,1739,1737,1737,1732,1735,1735,1735,1734,1740,1732,1739,1744,1785,1764,1767,1771,1779,1785,1786,1794,1799,1807,1809,1802,1809,1815,1807,1802,1811,1803,1802,1802,1850,1812,1806,1808,1812,1806,1803,1806,1799,1798,1799,1803,1802,1797,1793,1787,1791,1781,1783,1783,1819,1792,1799,1779,1783,1792,1783,1783,1779,1779,1778,1769,1769,1766,1758,1752,1753,1751,1748,1749,1775,1751,1749,1747,1742,1749,1751,1751,1747,1749,1750,1754,1757,1751,1755,1763,1771,1777,1786,1798,1833,1819,1819,1831,1826,1825,1819,1823,1827,1823,1819,1813,1809,1808,1806,1802,1798,1789,1791,1798,1835,1808,1802,1803,1813,1813,1814,1813,1815,1812,1812,1805,1808,1801,1803,1801,1801,1797,1797,1789,1823,1797,1793,1787,1782,1781,1781,1779,1771,1765,1765,1769,1766,1761,1760,1755,1756,1756,1758,1756,1783,1767,1769,1761,1758,1786,1748,1765,1760,1758,1763,1766,1773,1773,1794,1802,1815,1819,1828,1834,1862,1841,1841,1842,1839,1834,1834,1837,1838,1827,1831,1827,1822,1819,1821,1816,1811,1813,1813,1815,1845,1813,1815,1814,1817,1823,1820,1809,1811,1807,1813,1816,1807,1801,1795,1800,1797,1800,1799,1797,1828,1797,1795,1783,1779,1783,1778,1775,1772,1775,1771,1770,1769,1763,1770,1762,1758,1760,1761,1757,1788,1767,1762,1757,1753,1752,1761,1767,1771,1782,1786,1808,1802,1813,1811,1811,1815,1813,1807,1810,1838,1805,1803,1804,1803,1801,1803,1801,1818,1795,1791,1797,1793,1787,1792,1785,1778,1785,1780,1771,1811,1780,1775,1778,1773,1776,1774,1771,1767,1772,1766,1761,1759,1760,1763,1761,1753,1751,1749,1754,1779,1779,1754,1748,1747,1752,1754,1739,1741,1743,1739,1737,1733,1732,1727,1730,1730,1733,1733,1727,1763,1738,1735,1747,1755,1777,1779,1781,1788,1796,1796,1795,1800,1787,1789,1786,1840,1787,1792,1777,1814,1793,1783,1787,1778,1777,1779,1774,1774,1771,1766,1763,1761,1767,1773,1765,1770,1767,1766,1762,1799,1767,1762,1758,1755,1751,1745,1739,1742,1741,1736,1738,1738,1733,1731,1731,1733,1726,1730,1723,1767,1742,1726,1726,1731,1722,1721,1726,1717,1721,1719,1722,1718,1713,1712,1711,1717,1735,1739,1746,1799,1782,1782,1785,1786,1787,1791,1780,1780,1782,1780,1776,1776,1773,1769,1773,1767,1767,1764,1756,1797,1761,1761,1758,1765,1759,1760,1763,1763,1757,1754,1754,1761,1760,1752,1754,1752,1749,1756,1744,1773,1748,1735,1742,1745,1739,1739,1735,1742,1735,1737,1738,1735,1735,1731,1733,1735,1731,1737,1736,1777,1737,1730,1731,1731,1722,1723,1719,1717,1723,1730,1742,1753,1765,1771,1777,1783,1783,1790,1795,1835,1800,1801,1795,1797,1789,1797,1790,1794,1785,1789,1783,1783,1780,1778,1778,1777,1777,1775,1778,1817,1781,1779,1775,1786,1781,1775,1775,1771,1768,1767,1763,1765,1761,1760,1755,1762,1761,1750,1763,1797,1758,1749,1751,1750,1744,1739,1743,1741,1747,1745,1741,1745,1748,1743,1742,1737,1735,1731,1740,1781,1743,1741,1754,1766,1780,1781,1791,1795,1801,1803,1800,1796,1801,1799,1793,1795,1784,1783,1781,1827,1786,1783,1779,1780,1779,1778,1778,1767,1765,1774,1771,1771,1772,1770,1774,1773,1767,1771,1767,1806,1771,1775,1747,1761,1761,1754,1753,1755,1749,1749,1750,1742,1739,1739,1737,1737,1739,1744,1733,1771,1752,1743,1745,1745,1736,1733,1729,1730,1723,1725,1727,1715,1727,1732,1734,1739,1751,1766,1779,1826,1786,1798,1797,1793,1787,1787,1793,1790,1794,1789,1791,1787,1778,1786,1781,1776,1775,1766,1767,1809,1774,1775,1791,1767,1770,1765,1766,1762,1761,1761,1767,1763,1766,1762,1761,1758,1765,1758,1750,1787,1761,1761,1757,1752,1754,1754,1756,1757,1753,1755,1749,1742,1751,1738,1739,1741,1739,1737,1742,1770,1748,1749,1748,1747,1759,1771,1781,1791,1792,1801,1801,1803,1809,1803,1803,1809,1803,1807,1803,1837,1831,1805,1803,1798,1797,1794,1783,1791,1793,1783,1778,1781,1786,1785,1783,1783,1783,1781,1783,1832,1798,1795,1791,1784,1790,1787,1783,1779,1780,1771,1774,1767,1765,1760,1754,1754,1758,1748,1748,1778,1759,1755,1755,1751,1767,1749,1749,1751,1759,1761,1766,1782,1792,1805,1813,1821,1824,1823,1826,1869,1843,1838,1835,1837,1835,1835,1827,1833,1831,1823,1818,1822,1817,1814,1813,1806,1803,1803,1797,1827,1814,1846,1809,1803,1799,1789,1792,1794,1793,1781,1783,1783,1783,1781,1778,1779,1780,1781,1776,1801,1782,1773,1773,1775,1766,1761,1760,1756,1757,1749,1749,1743,1738,1741,1742,1746,1755,1756,1763,1811,1799,1799,1803,1813,1815,1815,1819,1819,1819,1815,1814,1815,1808,1810,1812,1813,1812,1806,1799,1826,1803,1797,1796,1795,1782,1781,1810,1781,1780,1779,1779,1779,1774,1767,1767,1764,1765,1761,1762,1794,1774,1771,1770,1775,1770,1767,1775,1767,1770,1771,1767,1763,1763,1756,1763,1755,1747,1745,1748,1777,1751,1753,1744,1754,1748,1748,1761,1767,1782,1797,1803,1816,1823,1823,1829,1825,1826,1835,1826,1855,1830,1824,1826,1815,1810,1810,1803,1801,1799,1806,1802,1789,1787,1786,1783,1786,1787,1784,1783,1817,1791,1787,1782,1783,1779,1782,1779,1777,1776,1778,1774,1776,1779,1778,1772,1774,1770,1774,1765,1801,1778,1773,1762,1760,1763,1756,1751,1743,1747,1738,1734,1733,1731,1726,1729,1719,1726,1731,1731,1775,1758,1769,1780,1786,1787,1792,1795,1799,1799,1795,1787,1797,1794,1791,1789,1789,1791,1786,1797,1827,1791,1791,1781,1780,1785,1778,1781,1773,1773,1778,1767,1769,1767,1757,1761,1758,1763,1765,1763,1798,1763,1760,1759,1763,1767,1754,1749,1753,1749,1750,1745,1739,1742,1735,1737,1734,1734,1729,1732,1773,1741,1738,1733,1727,1728,1727,1722,1719,1715,1723,1732,1738,1751,1757,1776,1782,1781,1783,1783,1831,1795,1795,1792,1790,1793,1786,1782,1780,1776,1775,1799,1775,1767,1763,1766,1760,1759,1759,1761,1802,1766,1765,1767,1763,1758,1759,1761,1757,1758,1757,1751,1757,1751,1750,1746,1751,1745,1741,1742,1777,1743,1739,1739,1732,1729,1728,1731,1726,1726,1747,1722,1720,1717,1719,1710,1707,1706,1719,1722,1751,1767,1757,1757,1762,1778,1780,1780,1783,1777,1781,1779,1776,1780,1782,1775,1773,1776,1775,1775,1807,1776,1770,1771,1761,1761,1758,1761,1758,1759,1756,1749,1750,1751,1754,1754,1755,1752,1749,1748,1778,1747,1739,1743,1735,1743,1737,1730,1731,1727,1722,1719,1717,1710,1774,1710,1705,1711,1711,1705,1737,1715,1713,1712,1705,1714,1707,1707,1716,1719,1730,1737,1750,1750,1758,1755,1767,1765,1761,1760,1793,1771,1767,1763,1767,1764,1764,1760,1767,1759,1754,1758,1760,1763,1746,1741,1747,1747,1742,1739,1774,1748,1747,1748,1738,1745,1744,1745,1742,1741,1732,1733,1734,1729,1727,1723,1718,1718,1710,1711,1741,1708,1706,1705,1699,1698,1693,1697,1696,1695,1682,1684,1681,1680,1681,1679,1678,1680,1683,1688,1731,1702,1711,1723,1728,1738,1739,1743,1744,1739,1741,1738,1743,1738,1739,1745,1770,1742,1741,1742,1771,1739,1731,1731,1728,1719,1720,1711,1713,1714,1721,1719,1712,1705,1715,1713,1709,1703,1704,1701,1746,1707,1701,1705,1700,1694,1699,1697,1693,1690,1687,1690,1687,1683,1675,1701,1680,1679,1675,1675,1717,1688,1681,1675,1678,1678,1678,1678,1671,1674,1671,1669,1670,1674,1682,1691,1701,1712,1711,1717,1763,1733,1726,1719,1718,1718,1715,1715,1711,1714,1710,1706,1714,1711,1704,1703,1690,1697,1695,1690,1727,1701,1695,1691,1694,1687,1690,1686,1681,1685,1680,1683,1679,1672,1672,1674,1669,1673,1675,1668,1707,1685,1673,1669,1669,1663,1662,1660,1661,1654,1650,1651,1652,1650,1651,1643,1640,1642,1641,1639,1663,1634,1629,1632,1637,1633,1639,1655,1654,1663,1675,1670,1684,1683,1677,1681,1679,1681,1679,1684,1713,1683,1677,1679,1674,1672,1670,1669,1662,1659,1659,1658,1653,1650,1652,1655,1648,1647,1650,1649,1675,1655,1652,1650,1645,1639,1646,1645,1637,1634,1644,1640,1632,1638,1631,1633,1628,1627,1622,1619,1655,1630,1629,1628,1617,1624,1616,1613,1607,1610,1609,1611,1614,1621,1631,1637,1648,1658,1665,1667,1703,1683,1675,1674,1672,1675,1672,1669,1660,1663,1664,1656,1655,1648,1642,1642,1647,1638,1637,1639,1669,1649,1653,1646,1643,1643,1638,1639,1640,1641,1633,1634,1634,1630,1631,1627,1620,1625,1621,1624,1668,1646,1620,1615,1623,1616,1620,1623,1616,1611,1611,1613,1617,1611,1607,1606,1609,1609,1601,1601,1642,1613,1623,1636,1650,1654,1653,1664,1669,1670,1667,1667,1669,1669,1667,1665,1658,1664,1665,1667,1710,1671,1667,1663,1664,1658,1650,1651,1647,1643,1647,1648,1639,1650,1645,1646,1642,1639,1644,1639,1669,1647,1645,1651,1639,1633,1633,1630,1625,1627,1629,1621,1619,1620,1623,1623,1626,1623,1624,1625,1657,1625,1625,1618,1616,1618,1609,1606,1613,1609,1615,1625,1635,1647,1657,1665,1666,1674,1680,1678,1709,1687,1682,1675,1676,1675,1666,1662,1665,1666,1662,1664,1653,1652,1649,1647,1646,1643,1633,1631,1675,1658,1658,1654,1649,1655,1647,1642,1643,1645,1641,1643,1640,1635,1642,1635,1635,1638,1630,1633,1663,1642,1637,1632,1627,1631,1623,1621,1615,1605,1611,1614,1600,1601,1600,1602,1601,1599,1598,1599,1641,1618,1627,1642,1648,1671,1660,1666,1673,1669,1668,1665,1664,1663,1669,1668,1662,1662,1659,1655,1690,1665,1659,1652,1646,1642,1646,1648,1642,1639,1639,1647,1639,1638,1638,1638,1641,1643,1637,1632,1659,1634,1629,1622,1619,1615,1634,1608,1615,1603,1598,1596,1595,1602,1599,1588,1588,1589,1580,1586,1618,1594,1589,1592,1583,1587,1588,1589,1597,1601,1607,1615,1632,1638,1647,1643,1651,1655,1650,1651,1685,1657,1651,1643,1646,1642,1642,1638,1640,1633,1628,1619,1618,1616,1617,1614,1609,1614,1615,1611,1653,1619,1614,1610,1613,1605,1609,1607,1601,1598,1598,1589,1586,1585,1581,1579,1573,1574,1573,1573,1611,1576,1577,1573,1571,1574,1571,1567,1567,1560,1559,1566,1562,1555,1560,1563,1563,1570,1584,1597,1651,1632,1627,1632,1642,1641,1647,1643,1639,1633,1634,1634,1631,1629,1624,1626,1625,1618,1625,1614,1653,1623,1619,1620,1618,1620,1618,1614,1610,1613,1613,1614,1610,1605,1605,1599,1600,1603,1596,1588,1637,1601,1589,1585,1584,1577,1588,1585,1581,1585,1581,1577,1581,1575,1571,1569,1564,1566,1561,1555,1579,1568,1563,1563,1569,1573,1583,1598,1608,1623,1620,1625,1630,1629,1632,1623,1626,1625,1624,1623,1657,1630,1630,1630,1626,1619,1615,1613,1609,1609,1611,1606,1607,1610,1605,1607,1613,1607,1607,1603,1634,1632,1608,1609,1607,1595,1603,1600,1589,1593,1592,1595,1588,1584,1581,1583,1575,1573,1572,1573,1601,1576,1574,1573,1568,1562,1566,1565,1557,1559,1559,1555,1555,1563,1572,1576,1585,1599,1615,1615,1657,1637,1627,1631,1637,1631,1631,1634,1630,1634,1638,1628,1631,1626,1624,1627,1617,1613,1614,1609,1650,1619,1615,1614,1609,1606,1605,1599,1599,1602,1599,1589,1604,1597,1592,1594,1590,1585,1587,1586,1622,1595,1586,1581,1588,1585,1581,1570,1571,1577,1568,1571,1572,1571,1568,1568,1570,1566,1561,1561,1603,1572,1568,1565,1567,1573,1584,1594,1609,1621,1637,1641,1647,1649,1659,1645,1642,1633,1633,1634,1669,1637,1637,1630,1631,1625,1621,1617,1606,1605,1602,1604,1595,1586,1586,1590,1585,1582,1578,1583,1622,1585,1584,1575,1573,1577,1574,1578,1575,1573,1575,1577,1580,1576,1572,1568,1567,1562,1561,1561,1595,1569,1574,1565,1566,1561,1557,1556,1554,1551,1552,1553,1547,1546,1547,1538,1541,1542,1545,1555,1600,1595,1597,1602,1614,1616,1617,1619,1611,1615,1613,1610,1622,1626,1606,1606,1614,1611,1606,1607,1633,1609,1607,1598,1597,1596,1589,1584,1584,1583,1586,1583,1578,1581,1576,1578,1583,1583,1578,1575,1603,1578,1574,1569,1571,1567,1565,1558,1551,1547,1551,1555,1547,1543,1541,1540,1538,1541,1539,1535,1565,1541,1538,1533,1527,1523,1523,1524,1522,1525,1529,1530,1537,1546,1562,1567,1581,1587,1591,1591,1623,1601,1605,1597,1599,1590,1589,1589,1588,1592,1588,1583,1585,1583,1586,1579,1585,1578,1573,1576,1613,1584,1581,1575,1568,1571,1569,1567,1571,1564,1565,1560,1558,1559,1566,1557,1551,1555,1545,1547,1591,1552,1545,1545,1543,1542,1531,1537,1537,1531,1530,1530,1534,1536,1527,1535,1531,1533,1527,1543,1568,1530,1533,1533,1539,1545,1553,1568,1593,1601,1607,1614,1611,1616,1614,1611,1605,1601,1595,1603,1637,1603,1597,1598,1590,1589,1586,1583,1587,1587,1582,1585,1579,1579,1574,1579,1575,1573,1572,1572,1594,1578,1571,1567,1566,1557,1558,1560,1551,1559,1555,1553,1550,1547,1549,1539,1543,1540,1549,1529,1556,1540,1535,1529,1528,1527,1534,1519,1521,1525,1520,1522,1524,1514,1520,1524,1530,1543,1549,1559,1613,1613,1594,1599,1594,1599,1593,1610,1585,1586,1584,1585,1582,1573,1579,1571,1569,1562,1561,1561,1596,1566,1564,1564,1561,1563,1566,1561,1558,1561,1561,1565,1559,1549,1549,1554,1558,1552,1547,1543,1581,1545,1545,1542,1538,1538,1531,1527,1525,1527,1522,1526,1523,1519,1519,1519,1515,1517,1522,1518,1556,1524,1522,1520,1515,1518,1529,1531,1541,1561,1571,1578,1585,1587,1586,1591,1597,1592,1595,1590,1629,1604,1597,1589,1585,1578,1575,1572,1568,1567,1561,1559,1555,1545,1545,1543,1545,1545,1537,1540,1587,1555,1551,1542,1545,1546,1546,1543,1547,1546,1544,1546,1546,1539,1536,1537,1543,1541,1538,1536,1575,1546,1540,1537,1536,1530,1533,1541,1537,1531,1525,1527,1531,1535,1541,1547,1561,1572,1585,1586,1617,1601,1601,1591,1590,1585,1588,1581,1578,1579,1572,1583,1572,1573,1569,1571,1567,1572,1571,1571,1597,1584,1579,1576,1568,1569,1571,1577,1572,1571,1571,1571,1570,1567,1566,1561,1559,1563,1565,1557,1586,1565,1555,1568,1562,1550,1548,1549,1542,1544,1541,1539,1534,1531,1527,1525,1527,1535,1541,1545,1587,1578,1589,1593,1603,1601,1610,1611,1615,1609,1605,1605,1603,1600,1597,1601,1598,1600,1602,1598,1626,1597,1591,1595,1591,1586,1585,1587,1589,1589,1585,1580,1583,1584,1574,1579,1575,1569,1574,1567,1604,1573,1567,1565,1562,1561,1562,1559,1549,1561,1561,1552,1547,1549,1556,1547,1541,1545,1541,1539,1572,1539,1540,1540,1541,1545,1563,1567,1581,1586,1601,1599,1605,1614,1615,1609,1615,1614,1617,1617,1654,1623,1613,1615,1611,1609,1600,1601,1596,1595,1590,1593,1593,1597,1594,1595,1605,1600,1599,1597,1629,1603,1598,1590,1595,1583,1575,1577,1575,1569,1571,1565,1569,1573,1573,1568,1575,1571,1569,1577,1599,1592,1585,1584,1583,1583,1573,1565,1562,1563,1565,1571,1577,1587,1601,1604,1617,1618,1631,1633,1665,1654,1643,1645,1639,1637,1641,1643,1634,1634,1638,1629,1627,1621,1624,1624,1613,1617,1617,1623,1649,1627,1623,1623,1615,1619,1613,1617,1615,1614,1618,1614,1609,1600,1598,1600,1593,1597,1589,1594,1630,1594,1600,1592,1587,1584,1578,1585,1583,1578,1571,1576,1575,1574,1569,1573,1588,1596,1606,1622,1663,1663,1642,1646,1643,1646,1641,1635,1637,1639,1638,1635,1630,1637,1630,1625,1627,1627,1642,1607,1652,1629,1619,1617,1621,1614,1613,1614,1615,1610,1612,1611,1602,1600,1579,1599,1604,1595,1591,1594,1627,1594,1591,1592,1586,1582,1579,1575,1578,1568,1573,1573,1569,1567,1571,1567,1567,1561,1559,1561,1581,1573,1561,1551,1561,1558,1575,1586,1598,1609,1619,1631,1631,1637,1642,1638,1643,1643,1643,1647,1673,1651,1644,1637,1635,1638,1633,1635,1631,1602,1621,1619,1615,1617,1613,1613,1619,1616,1614,1611,1642,1622,1619,1615,1615,1617,1607,1611,1609,1601,1600,1595,1598,1599,1593,1587,1587,1587,1583,1585,1617,1591,1583,1582,1582,1575,1570,1572,1570,1569,1566,1566,1565,1561,1564,1555,1602,1560,1557,1563,1617,1596,1601,1617,1619,1629,1637,1637,1638,1633,1640,1641,1633,1639,1635,1637,1634,1635,1639,1627,1667,1631,1638,1630,1617,1620,1617,1611,1607,1611,1614,1611,1611,1607,1611,1607,1607,1610,1605,1613,1645,1615,1609,1609,1605,1605,1600,1599,1602,1594,1585,1588,1581,1583,1575,1576,1575,1579,1574,1574,1603,1581,1577,1573,1574,1566,1566,1565,1568,1569,1561,1558,1549,1555,1562,1570,1581,1589,1607,1617,1658,1646,1641,1643,1642,1642,1642,1635,1636,1639,1638,1637,1635,1635,1634,1632,1625,1619,1607,1614,1647,1617,1619,1623,1614,1610,1618,1615,1610,1614,1607,1614,1611,1605,1610,1606,1598,1597,1591,1591,1632,1597,1595,1589,1584,1583,1589,1582,1575,1573,1569,1565,1566,1565,1570,1568,1561,1563,1566,1565,1595,1559,1561,1558,1551,1553,1546,1543,1547,1547,1547,1549,1568,1592,1609,1609,1617,1625,1623,1629,1676,1643,1635,1632,1628,1631,1626,1629,1623,1619,1621,1619,1618,1611,1613,1611,1607,1609,1609,1610,1653,1617,1619,1613,1607,1606,1609,1601,1594,1598,1598,1595,1597,1587,1585,1587,1587,1577,1582,1573,1607,1586,1571,1572,1566,1563,1564,1558,1559,1559,1550,1547,1554,1549,1549,1549,1549,1551,1548,1543,1570,1555,1545,1544,1536,1529,1531,1523,1526,1527,1540,1555,1563,1579,1584,1591,1601,1601,1606,1607,1629,1615,1603,1597,1603,1603,1600,1597,1591,1594,1579,1570,1568,1555,1549,1547,1549,1539,1538,1531,1565,1579,1545,1547,1542,1543,1547,1542,1553,1543,1543,1544,1545,1539,1538,1542,1537,1543,1535,1531,1553,1542,1527,1527,1527,1525,1524,1524,1523,1522,1525,1519,1519,1510,1507,1511,1510,1507,1505,1501,1541,1510,1507,1502,1506,1503,1502,1515,1523,1530,1543,1556,1569,1573,1571,1575,1573,1575,1569,1570,1610,1578,1575,1563,1563,1558,1563,1558,1555,1555,1551,1543,1545,1545,1543,1541,1544,1537,1533,1528,1575,1541,1536,1531,1527,1527,1525,1525,1523,1525,1522,1514,1514,1517,1511,1510,1508,1508,1517,1504,1533,1506,1505,1503,1501,1495,1493,1493,1488,1493,1490,1484,1486,1474,1479,1471,1473,1469,1474,1471,1493,1475,1474,1479,1484,1492,1513,1519,1525,1535,1541,1541,1545,1543,1536,1533,1530,1529,1524,1526,1557,1542,1543,1538,1536,1522,1517,1511,1505,1499,1496,1491,1496,1501,1491,1489,1490,1489,1491,1487,1515,1502,1495,1486,1487,1487,1482,1481,1474,1479,1479,1473,1470,1473,1467,1467,1461,1467,1465,1458,1487,1463,1466,1455,1462,1453,1454,1449,1450,1449,1441,1445,1445,1453,1448,1446,1449,1449,1454,1469,1513,1499,1509,1517,1519,1525,1526,1530,1524,1527,1518,1522,1518,1511,1515,1514,1505,1505,1503,1503,1531,1502,1503,1495,1499,1491,1493,1493,1490,1487,1489,1485,1487,1488,1479,1479,1482,1479,1474,1478,1515,1479,1470,1474,1465,1473,1466,1470,1469,1466,1462,1457,1454,1454,1447,1447,1444,1440,1441,1438,1460,1450,1445,1437,1440,1430,1429,1422,1423,1425,1422,1422,1430,1447,1454,1471,1481,1489,1493,1501,1536,1515,1511,1512,1512,1511,1507,1501,1498,1500,1490,1485,1478,1476,1475,1470,1465,1460,1459,1461,1495,1473,1473,1471,1477,1471,1473,1475,1475,1470,1467,1465,1456,1457,1457,1455,1461,1451,1453,1451,1479,1450,1447,1439,1441,1437,1437,1437,1438,1429,1431,1429,1417,1420,1418,1419,1415,1412,1407,1410,1447,1418,1415,1415,1418,1421,1439,1444,1458,1467,1471,1476,1455,1475,1482,1470,1467,1470,1470,1473,1498,1476,1472,1466,1467,1466,1457,1456,1458,1461,1454,1457,1455,1460,1459,1459,1453,1450,1451,1454,1486,1459,1454,1447,1450,1443,1440,1439,1435,1433,1431,1432,1429,1428,1420,1419,1418,1417,1413,1413,1440,1442,1418,1409,1415,1417,1409,1418,1403,1409,1408,1409,1409,1415,1429,1439,1451,1455,1467,1474,1506,1481,1486,1477,1478,1475,1474,1467,1469,1466,1469,1469,1459,1455,1458,1461,1457,1453,1453,1447,1488,1454,1451,1447,1446,1446,1448,1440,1447,1440,1440,1434,1438,1435,1431,1433,1433,1427,1419,1419,1463,1426,1424,1419,1412,1417,1413,1402,1411,1412,1413,1402,1405,1407,1411,1405,1403,1401,1398,1392,1440,1411,1405,1403,1419,1430,1443,1454,1465,1467,1475,1478,1477,1478,1482,1477,1477,1483,1479,1479,1509,1487,1484,1483,1469,1476,1483,1476,1463,1460,1461,1461,1453,1458,1458,1458,1454,1455,1457,1461,1488,1466,1465,1461,1457,1450,1451,1442,1439,1439,1441,1441,1435,1432,1433,1429,1432,1427,1421,1421,1452,1436,1431,1429,1427,1425,1423,1412,1416,1411,1409,1408,1409,1414,1422,1430,1447,1453,1457,1470,1517,1482,1485,1493,1497,1489,1489,1485,1485,1482,1479,1477,1481,1475,1484,1479,1481,1477,1468,1469,1511,1473,1467,1462,1461,1463,1465,1461,1461,1460,1455,1460,1450,1447,1445,1447,1441,1438,1434,1431,1474,1444,1439,1443,1431,1439,1436,1433,1429,1476,1424,1417,1418,1413,1415,1415,1415,1418,1413,1416,1447,1423,1416,1407,1404,1423,1421,1425,1448,1453,1465,1471,1481,1479,1483,1486,1491,1492,1488,1493,1507,1479,1473,1470,1462,1461,1460,1463,1456,1451,1459,1457,1451,1443,1439,1443,1444,1435,1435,1433,1472,1439,1434,1430,1428,1429,1421,1422,1414,1417,1418,1417,1416,1410,1413,1410,1410,1415,1409,1409,1459,1443,1449,1454,1462,1469,1474,1475,1479,1478,1482,1466,1482,1483,1487,1489,1479,1473,1475,1469,1511,1475,1470,1467,1464,1461,1469,1459,1460,1461,1457,1460,1454,1459,1458,1454,1454,1453,1451,1447,1476,1455,1444,1444,1440,1439,1442,1439,1438,1433,1433,1427,1430,1419,1420,1422,1424,1417,1416,1418,1449,1427,1421,1431,1421,1417,1423,1418,1415,1431,1442,1456,1462,1460,1476,1478,1485,1486,1486,1489,1521,1500,1498,1493,1500,1491,1489,1492,1495,1495,1493,1480,1482,1479,1478,1476,1471,1473,1471,1472,1508,1480,1467,1472,1471,1465,1462,1461,1461,1463,1458,1452,1454,1448,1446,1445,1449,1443,1435,1438,1475,1473,1442,1436,1433,1429,1426,1463,1431,1431,1430,1432,1433,1427,1429,1431,1421,1422,1421,1413,1447,1431,1436,1445,1454,1458,1470,1478,1479,1483,1487,1491,1497,1498,1502,1502,1500,1505,1510,1505,1542,1511,1507,1505,1499,1495,1523,1489,1475,1475,1479,1483,1481,1478,1478,1479,1478,1482,1481,1471,1520,1482,1481,1472,1477,1471,1466,1460,1461,1460,1455,1453,1457,1449,1446,1452,1445,1443,1437,1430,1475,1447,1435,1439,1441,1440,1435,1435,1435,1428,1430,1425,1425,1412,1411,1429,1408,1433,1443,1453,1509,1490,1495,1500,1501,1505,1507,1512,1505,1504,1506,1502,1500,1497,1501,1499,1493,1491,1490,1485,1514,1493,1483,1489,1482,1485,1475,1477,1475,1477,1482,1467,1473,1474,1475,1475,1475,1469,1471,1470,1502,1482,1469,1460,1458,1459,1458,1449,1447,1445,1447,1439,1442,1444,1435,1440,1445,1441,1441,1441,1474,1449,1433,1434,1425,1423,1422,1418,1415,1410,1410,1411,1411,1411,1409,1419,1427,1436,1447,1463,1519,1502,1501,1504,1513,1508,1511,1508,1507,1506,1512,1510,1513,1509,1503,1511,1508,1507,1514,1503,1526,1511,1502,1495,1489,1483,1486,1482,1481,1483,1483,1479,1485,1482,1482,1479,1481,1475,1470,1470,1496,1483,1474,1462,1462,1465,1462,1457,1454,1455,1450,1445,1443,1443,1442,1435,1435,1434,1429,1424,1453,1438,1433,1429,1426,1429,1428,1430,1422,1430,1433,1428,1453,1461,1467,1483,1496,1489,1493,1494,1535,1510,1507,1504,1504,1497,1493,1495,1487,1482,1489,1483,1483,1477,1480,1482,1479,1477,1472,1474,1503,1485,1473,1474,1470,1467,1471,1473,1469,1471,1460,1463,1461,1457,1452,1456,1454,1450,1449,1453,1481,1452,1442,1434,1433,1440,1435,1431,1429,1427,1419,1417,1421,1422,1422,1419,1426,1426,1419,1418,1445,1441,1441,1442,1460,1471,1476,1490,1490,1493,1494,1491,1490,1491,1483,1487,1485,1494,1491,1493,1531,1501,1498,1488,1485,1480,1475,1472,1463,1462,1463,1465,1458,1459,1463,1463,1470,1466,1462,1463,1504,1471,1463,1455,1456,1449,1449,1447,1439,1441,1439,1435,1429,1424,1417,1419,1419,1418,1416,1415,1447,1422,1421,1423,1416,1410,1408,1414,1409,1403,1402,1407,1402,1405,1409,1419,1429,1440,1454,1466,1502,1510,1487,1483,1483,1486,1489,1487,1489,1491,1493,1497,1503,1505,1505,1502,1503,1492,1486,1482,1501,1483,1478,1471,1470,1475,1467,1462,1465,1461,1463,1457,1464,1462,1453,1448,1454,1444,1447,1445,1485,1447,1446,1447,1448,1443,1437,1437,1431,1426,1431,1426,1423,1426,1424,1423,1418,1419,1422,1425,1464,1434,1421,1418,1411,1403,1409,1402,1401,1408,1427,1436,1449,1460,1473,1477,1483,1484,1487,1479,1507,1490,1492,1495,1485,1483,1483,1485,1482,1477,1481,1475,1475,1475,1471,1469,1470,1471,1471,1470,1498,1483,1477,1476,1461,1473,1471,1463,1467,1463,1458,1457,1457,1457,1453,1444,1451,1447,1445,1446,1471,1450,1445,1439,1436,1437,1436,1431,1435,1436,1423,1417,1419,1416,1416,1403,1403,1402,1397,1395,1434,1413,1415,1428,1443,1459,1469,1489,1495,1498,1507,1512,1510,1513,1510,1508,1506,1501,1493,1567,1520,1490,1485,1473,1467,1470,1468,1469,1467,1469,1467,1478,1476,1479,1475,1467,1475,1473,1474,1474,1490,1469,1463,1460,1458,1460,1450,1457,1451,1454,1454,1459,1460,1460,1455,1447,1449,1449,1447,1446,1469,1445,1437,1433,1426,1422,1414,1421,1421,1418,1423,1439,1454,1461,1473,1475,1481,1491,1489,1493,1527,1502,1506,1501,1499,1491,1485,1487,1490,1488,1483,1489,1477,1472,1462,1463,1463,1467,1463,1461,1504,1474,1472,1461,1461,1458,1451,1450,1446,1445,1439,1438,1435,1437,1437,1427,1430,1424,1429,1426,1448,1429,1443,1419,1418,1419,1413,1418,1409,1407,1403,1402,1398,1410,1405,1391,1392,1390,1386,1392,1419,1399,1407,1417,1431,1447,1463,1471,1481,1482,1486,1482,1488,1483,1485,1481,1484,1478,1474,1480,1511,1486,1477,1476,1471,1459,1457,1455,1460,1467,1443,1449,1447,1446,1445,1446,1446,1448,1445,1445,1485,1451,1445,1445,1438,1435,1430,1427,1428,1424,1423,1421,1419,1417,1411,1415,1411,1418,1415,1410,1443,1417,1412,1409,1406,1402,1398,1395,1394,1387,1389,1385,1383,1385,1391,1397,1409,1426,1434,1446,1483,1466,1466,1472,1468,1485,1471,1459,1462,1462,1462,1459,1454,1457,1461,1459,1450,1452,1449,1447,1480,1447,1443,1439,1439,1443,1438,1437,1438,1435,1434,1434,1435,1432,1432,1427,1426,1426,1419,1418,1459,1437,1415,1418,1414,1411,1406,1417,1410,1409,1405,1414,1405,1402,1407,1407,1399,1401,1395,1399,1443,1398,1391,1391,1390,1387,1391,1389,1394,1403,1415,1427,1434,1445,1461,1456,1461,1468,1463,1464,1502,1481,1474,1475,1463,1461,1463,1458,1461,1464,1453,1447,1442,1446,1444,1441,1440,1438,1438,1434,1470,1441,1437,1433,1436,1437,1429,1426,1434,1427,1425,1425,1419,1415,1411,1408,1411,1406,1397,1399,1439,1408,1406,1399,1392,1393,1391,1391,1396,1389,1389,1386,1386,1382,1382,1383,1382,1375,1371,1373,1399,1370,1367,1371,1373,1381,1392,1403,1419,1430,1441,1456,1431,1453,1459,1461,1458,1454,1449,1459,1487,1463,1466,1462,1458,1458,1455,1450,1447,1445,1443,1438,1439,1440,1443,1437,1438,1440,1435,1436,1477,1446,1439,1439,1434,1432,1426,1425,1421,1427,1424,1415,1419,1413,1409,1408,1406,1399,1399,1397,1428,1406,1396,1399,1398,1401,1395,1389,1394,1382,1389,1383,1378,1378,1372,1366,1365,1370,1364,1365,1395,1381,1378,1396,1406,1416,1427,1429,1437,1441,1447,1447,1441,1439,1446,1442,1442,1435,1433,1434,1465,1440,1428,1427,1425,1418,1410,1406,1411,1402,1402,1405,1395,1391,1401,1401,1401,1394,1395,1394,1435,1406,1396,1395,1390,1387,1384,1373,1375,1377,1377,1375,1370,1364,1366,1360,1363,1364,1360,1353,1385,1364,1360,1361,1362,1352,1351,1345,1346,1342,1335,1335,1333,1331,1333,1332,1329,1326,1327,1329,1367,1361,1373,1386,1399,1402,1407,1413,1414,1412,1407,1408,1409,1427,1411,1405,1399,1399,1398,1394,1433,1390,1392,1382,1375,1377,1374,1371,1373,1369,1369,1370,1369,1370,1373,1368,1364,1364,1368,1367,1397,1372,1366,1363,1360,1360,1357,1350,1345,1347,1346,1343,1337,1333,1335,1331,1332,1308,1325,1329,1353,1329,1322,1321,1322,1326,1320,1315,1311,1314,1306,1306,1302,1303,1301,1293,1299,1297,1302,1313,1365,1355,1355,1365,1373,1382,1389,1384,1385,1384,1386,1379,1379,1371,1369,1380,1377,1370,1369,1365,1405,1369,1364,1364,1360,1362,1358,1357,1355,1350,1346,1347,1344,1338,1345,1348,1343,1343,1338,1335,1377,1336,1335,1331,1326,1327,1328,1324,1317,1326,1323,1321,1315,1312,1310,1310,1304,1308,1302,1308,1336,1348,1317,1302,1301,1308,1309,1302,1300,1303,1295,1296,1289,1287,1287,1284,1281,1288,1294,1354,1347,1335,1345,1354,1362,1375,1377,1379,1377,1377,1372,1367,1371,1366,1361,1358,1364,1361,1354,1352,1398,1361,1355,1349,1344,1345,1341,1341,1337,1338,1337,1344,1343,1332,1333,1332,1327,1335,1333,1333,1362,1336,1337,1329,1321,1321,1321,1322,1311,1313,1310,1309,1307,1299,1299,1295,1292,1291,1291,1291,1317,1295,1295,1292,1287,1288,1292,1285,1282,1282,1280,1278,1282,1266,1274,1267,1269,1275,1288,1291,1342,1329,1337,1347,1349,1353,1358,1353,1354,1357,1353,1348,1349,1345,1344,1348,1341,1342,1337,1336,1372,1340,1331,1331,1323,1326,1322,1323,1326,1327,1325,1326,1329,1325,1317,1319,1318,1319,1314,1312,1356,1323,1317,1320,1314,1310,1309,1309,1304,1299,1298,1298,1297,1298,1290,1294,1292,1291,1291,1291,1324,1300,1299,1302,1290,1289,1287,1290,1280,1278,1277,1271,1268,1269,1263,1269,1266,1281,1298,1312,1360,1379,1349,1359,1360,1355,1359,1357,1358,1351,1354,1354,1356,1349,1354,1352,1346,1335,1344,1338,1373,1341,1338,1335,1334,1329,1330,1325,1329,1321,1323,1321,1317,1324,1319,1317,1315,1314,1312,1303,1334,1312,1306,1310,1300,1298,1295,1289,1290,1286,1282,1283,1283,1288,1287,1293,1290,1285,1287,1285,1314,1294,1278,1271,1273,1273,1271,1265,1261,1262,1261,1267,1264,1262,1263,1272,1280,1290,1309,1318,1368,1342,1344,1345,1350,1347,1354,1348,1346,1341,1341,1341,1345,1341,1343,1345,1333,1334,1335,1328,1369,1339,1332,1329,1328,1328,1330,1329,1317,1326,1326,1328,1319,1319,1312,1318,1313,1309,1307,1300,1330,1309,1305,1301,1293,1301,1301,1291,1291,1289,1289,1285,1288,1282,1280,1280,1271,1274,1277,1273,1305,1286,1275,1275,1275,1293,1271,1269,1268,1277,1271,1283,1291,1305,1322,1327,1334,1341,1345,1345,1381,1353,1345,1348,1344,1344,1342,1341,1340,1338,1337,1333,1333,1327,1323,1322,1323,1315,1317,1314,1357,1324,1313,1315,1317,1317,1319,1318,1313,1314,1310,1304,1303,1299,1297,1303,1303,1297,1296,1300,1331,1304,1291,1293,1287,1285,1285,1283,1283,1275,1269,1269,1268,1268,1267,1271,1266,1267,1268,1268,1301,1291,1278,1274,1281,1287,1303,1319,1322,1335,1335,1347,1345,1348,1351,1350,1352,1357,1359,1351,1395,1365,1359,1358,1354,1348,1344,1344,1329,1331,1320,1317,1319,1321,1321,1313,1315,1317,1325,1322,1355,1333,1321,1326,1325,1320,1317,1316,1313,1320,1303,1303,1305,1298,1299,1291,1299,1297,1297,1293,1331,1317,1296,1299,1304,1292,1291,1295,1299,1290,1291,1287,1290,1288,1289,1288,1283,1290,1289,1302,1352,1323,1333,1338,1346,1358,1358,1360,1359,1358,1360,1362,1361,1362,1360,1363,1355,1359,1358,1360,1389,1366,1351,1351,1345,1340,1336,1335,1341,1338,1332,1331,1330,1333,1336,1334,1325,1325,1325,1326,1354,1333,1334,1326,1322,1322,1322,1315,1315,1318,1321,1312,1311,1307,1311,1311,1302,1306,1305,1304,1341,1317,1300,1302,1308,1300,1297,1292,1288,1295,1285,1283,1288,1282,1285,1285,1285,1295,1302,1318,1376,1358,1365,1361,1370,1370,1370,1373,1377,1381,1376,1377,1376,1369,1372,1370,1373,1370,1365,1358,1389,1370,1368,1361,1357,1350,1351,1351,1347,1353,1349,1362,1351,1353,1354,1348,1351,1349,1352,1351,1383,1363,1354,1347,1347,1337,1335,1330,1329,1331,1331,1330,1326,1319,1324,1317,1313,1315,1312,1311,1351,1317,1321,1311,1304,1299,1300,1298,1297,1291,1288,1287,1319,1283,1286,1283,1279,1289,1300,1307,1357,1355,1354,1362,1367,1367,1375,1371,1374,1376,1368,1365,1373,1369,1373,1363,1363,1367,1363,1351,1388,1363,1360,1355,1357,1352,1348,1349,1344,1351,1342,1343,1342,1342,1342,1338,1333,1335,1332,1327,1369,1335,1330,1322,1326,1326,1317,1322,1313,1319,1316,1314,1318,1314,1311,1306,1302,1297,1299,1291,1321,1300,1298,1296,1295,1291,1289,1292,1291,1288,1285,1284,1286,1282,1284,1284,1279,1270,1268,1265,1295,1275,1276,1285,1303,1315,1327,1334,1344,1351,1356,1360,1362,1362,1386,1363,1359,1358,1362,1363,1393,1369,1362,1363,1354,1353,1346,1344,1338,1337,1344,1341,1335,1339,1339,1341,1335,1336,1338,1333,1382,1345,1339,1331,1329,1329,1325,1323,1314,1310,1311,1313,1310,1308,1303,1303,1302,1301,1298,1298,1327,1306,1304,1298,1305,1301,1302,1291,1288,1291,1284,1275,1281,1275,1278,1271,1285,1275,1275,1287,1341,1349,1335,1348,1362,1363,1370,1374,1363,1363,1364,1360,1363,1359,1353,1354,1346,1345,1350,1340,1378,1348,1344,1340,1331,1329,1322,1320,1320,1319,1308,1309,1310,1306,1303,1305,1317,1306,1299,1301,1327,1304,1297,1291,1294,1285,1286,1287,1285,1281,1282,1278,1282,1280,1277,1278,1271,1275,1270,1277,1300,1277,1268,1271,1278,1271,1271,1262,1262,1258,1258,1254,1259,1254,1253,1258,1258,1271,1286,1302,1351,1339,1335,1347,1354,1352,1353,1356,1356,1353,1354,1353,1347,1350,1350,1351,1349,1346,1348,1347,1370,1347,1343,1344,1344,1346,1346,1343,1342,1339,1345,1346,1342,1343,1341,1345,1349,1341,1343,1339,1370,1347,1340,1331,1333,1342,1354,1353,1351,1346,1348,1344,1343,1340,1336,1335,1333,1331,1327,1315,1348,1327,1318,1315,1311,1310,1306,1307,1300,1298,1296,1296,1299,1300,1297,1313,1325,1341,1355,1354,1397,1383,1382,1381,1380,1377,1380,1378,1370,1372,1365,1364,1367,1367,1362,1362,1356,1358,1357,1347,1381,1355,1343,1343,1343,1341,1339,1341,1345,1336,1332,1330,1329,1323,1331,1328,1322,1321,1320,1317,1353,1325,1307,1310,1309,1301,1303,1298,1294,1294,1285,1287,1290,1281,1281,1281,1282,1273,1275,1273,1300,1285,1279,1281,1274,1271,1268,1266,1269,1262,1265,1260,1262,1277,1296,1307,1315,1318,1333,1337,1378,1356,1353,1353,1352,1349,1342,1342,1334,1329,1335,1330,1326,1327,1320,1322,1316,1314,1315,1308,1354,1322,1316,1317,1314,1309,1313,1309,1303,1308,1307,1293,1296,1296,1290,1294,1286,1291,1290,1283,1328,1294,1284,1280,1279,1280,1275,1277,1269,1268,1266,1265,1267,1259,1258,1252,1255,1250,1251,1240,1270,1254,1246,1246,1288,1235,1236,1234,1237,1239,1247,1251,1265,1278,1287,1296,1301,1303,1309,1304,1350,1317,1312,1306,1305,1302,1295,1291,1299,1301,1294,1296,1297,1298,1293,1295,1289,1294,1288,1283,1329,1296,1295,1288,1291,1293,1289,1283,1284,1283,1285,1274,1278,1275,1271,1274,1268,1266,1268,1265,1295,1277,1264,1268,1262,1262,1259,1253,1251,1246,1243,1240,1241,1234,1259,1246,1234,1234,1232,1237,1277,1239,1243,1231,1241,1235,1236,1238,1242,1253,1272,1285,1291,1298,1303,1310,1309,1302,1306,1299,1335,1326,1303,1294,1297,1298,1295,1325,1286,1281,1283,1271,1274,1267,1263,1264,1263,1265,1260,1262,1286,1277,1271,1264,1264,1269,1271,1267,1266,1264,1263,1266,1266,1267,1258,1255,1261,1268,1261,1248,1282,1257,1248,1247,1241,1237,1234,1238,1226,1227,1225,1232,1229,1225,1222,1223,1219,1222,1223,1223,1275,1255,1261,1270,1283,1278,1279,1281,1281,1282,1278,1278,1281,1273,1268,1269,1263,1266,1259,1260,1287,1258,1249,1247,1249,1235,1231,1227,1238,1241,1237,1232,1244,1235,1234,1240,1242,1244,1236,1245,1279,1249,1245,1236,1234,1233,1225,1226,1223,1222,1238,1221,1219,1217,1215,1217,1209,1204,1205,1204,1235,1213,1203,1207,1210,1211,1209,1217,1220,1236,1249,1255,1265,1265,1271,1278,1270,1277,1272,1275,1317,1283,1279,1271,1274,1268,1269,1269,1259,1264,1257,1255,1261,1255,1253,1253,1249,1255,1259,1258,1289,1267,1265,1257,1253,1250,1254,1248,1246,1244,1246,1237,1226,1218,1215,1218,1216,1213,1212,1202,1239,1224,1219,1209,1207,1200,1206,1204,1206,1214,1205,1206,1215,1223,1231,1243,1248,1262,1268,1268,1318,1289,1284,1282,1280,1278,1274,1271,1269,1265,1258,1258,1261,1262,1241,1244,1242,1244,1245,1240,1272,1250,1244,1244,1248,1243,1247,1244,1251,1259,1249,1239,1243,1234,1229,1219,1212,1207,1204,1205,1236,1205,1201,1195,1197,1191,1191,1184,1183,1229,1182,1185,1184,1183,1186,1190,1183,1182,1176,1176,1215,1177,1178,1184,1196,1205,1214,1215,1231,1241,1251,1253,1266,1269,1270,1271,1267,1257,1256,1251,1282,1253,1246,1242,1236,1236,1232,1231,1227,1231,1236,1239,1244,1247,1247,1248,1247,1236,1237,1233,1272,1234,1219,1222,1209,1206,1202,1203,1201,1197,1202,1205,1213,1210,1217,1225,1213,1216,1213,1201,1227,1201,1181,1174,1158,1147,1146,1144,1141,1136,1131,1125,1138,1140,1151,1163,1184,1204,1214,1222,1269,1254,1249,1242,1242,1227,1228,1216,1219,1216,1211,1257,1216,1225,1219,1218,1219,1232,1236,1227,1270,1233,1230,1225,1215,1207,1205,1191,1191,1195,1191,1193,1186,1191,1190,1187,1184,1191,1191,1193,1222,1199,1193,1194,1191,1182,1177,1181,1177,1171,1161,1160,1153,1152,1151,1153,1149,1154,1155,1153,1199,1184,1170,1174,1177,1166,1163,1171,1155,1155,1146,1151,1149,1155,1172,1198,1209,1216,1230,1235,1284,1259,1260,1261,1266,1267,1263,1263,1265,1265,1263,1262,1257,1251,1244,1239,1225,1225,1211,1211,1250,1225,1218,1223,1219,1224,1222,1221,1222,1222,1233,1229,1224,1223,1212,1215,1215,1211,1210,1201,1247,1217,1211,1205,1198,1195,1196,1191,1189,1183,1180,1174,1172,1173,1167,1166,1162,1160,1156,1150,1178,1149,1147,1137,1129,1130,1125,1129,1134,1125,1130,1135,1145,1164,1178,1189,1209,1224,1227,1236,1289,1254,1255,1251,1250,1242,1237,1238,1234,1232,1222,1220,1213,1215,1203,1195,1187,1187,1189,1189,1224,1200,1198,1202,1191,1197,1195,1197,1190,1195,1188,1181,1181,1171,1168,1161,1160,1160,1159,1155,1199,1167,1157,1155,1155,1147,1146,1148,1147,1151,1154,1153,1146,1143,1135,1131,1134,1128,1127,1123,1155,1132,1121,1113,1115,1109,1111,1107,1108,1120,1130,1140,1153,1163,1177,1186,1193,1193,1184,1186,1214,1189,1186,1186,1175,1180,1176,1175,1181,1175,1171,1171,1163,1161,1160,1156,1147,1143,1142,1142,1182,1146,1143,1142,1134,1136,1139,1138,1129,1131,1130,1130,1127,1123,1125,1121,1119,1119,1116,1109,1131,1116,1106,1107,1099,1102,1103,1099,1093,1102,1102,1093,1088,1084,1082,1078,1076,1079,1080,1074,1108,1086,1088,1087,1093,1111,1121,1130,1140,1147,1143,1146,1145,1153,1159,1153,1150,1146,1144,1142,1170,1147,1146,1137,1135,1134,1135,1131,1127,1124,1113,1117,1115,1114,1113,1107,1110,1105,1104,1103,1135,1112,1108,1106,1107,1104,1105,1102,1102,1098,1091,1096,1089,1086,1077,1077,1072,1069,1061,1055,1105,1071,1065,1069,1063,1061,1066,1061,1061,1060,1057,1053,1051,1053,1051,1045,1044,1044,1048,1063,1106,1100,1108,1122,1127,1129,1160,1131,1134,1122,1122,1129,1125,1111,1115,1113,1112,1109,1104,1105,1144,1114,1110,1102,1099,1096,1095,1093,1095,1087,1086,1091,1090,1086,1080,1078,1081,1082,1076,1070,1104,1072,1065,1065,1059,1054,1054,1051,1047,1044,1042,1041,1034,1034,1038,1038,1029,1032,1030,1027,1058,1039,1035,1030,1019,1019,1018,1012,1010,1006,1011,1013,1031,1044,1059,1073,1081,1087,1099,1103,1144,1127,1110,1104,1098,1095,1088,1092,1092,1088,1082,1085,1079,1082,1079,1074,1075,1070,1066,1065,1097,1079,1072,1066,1059,1063,1061,1058,1064,1058,1059,1059,1051,1053,1053,1051,1051,1050,1049,1046,1088,1050,1048,1038,1034,1038,1037,1033,1037,1031,1032,1030,1026,1025,1022,1021,1021,1015,1011,1015,1040,1019,1011,1015,1013,1011,1022,1032,1048,1059,1066,1077,1087,1092,1089,1088,1094,1095,1089,1093,1126,1095,1093,1091,1086,1087,1077,1083,1078,1063,1064,1054,1058,1057,1053,1051,1052,1057,1055,1059,1096,1067,1063,1066,1058,1053,1055,1055,1048,1046,1041,1043,1040,1037,1035,1026,1027,1025,1018,1015,1046,1021,1018,1019,1018,1014,1015,1018,1011,1010,1010,1029,1010,1011,1016,1010,1017,1026,1036,1054,1105,1087,1091,1086,1088,1086,1076,1081,1079,1074,1074,1072,1079,1074,1079,1071,1074,1069,1061,1058,1092,1070,1073,1070,1065,1073,1061,1059,1068,1072,1069,1064,1057,1062,1062,1057,1054,1055,1052,1050,1093,1054,1052,1045,1039,1042,1038,1029,1018,1016,1012,1010,1007,1003,1006,1027,1005,997,997,1003,1025,1002,998,990,991,985,981,992,984,993,1001,1014,1027,1042,1046,1052,1061,1063,1065,1074,1112,1080,1077,1079,1079,1075,1074,1075,1077,1067,1068,1063,1063,1065,1054,1048,1042,1041,1039,1042,1065,1046,1039,1035,1038,1035,1038,1037,1042,1038,1038,1041,1035,1038,1038,1032,1034,1029,1031,1025,1054,1024,1015,1015,1009,1009,1003,1010,1008,1008,1005,1001,995,997,1002,1002,996,998,998,1000,1031,1003,1000,1006,1015,1023,1042,1055,1062,1068,1072,1073,1073,1079,1079,1077,1079,1083,1075,1079,1107,1085,1086,1076,1081,1084,1075,1071,1072,1069,1062,1056,1051,1050,1053,1049,1054,1055,1055,1054,1097,1069,1061,1056,1057,1062,1061,1057,1049,1046,1043,1038,1030,1028,1023,1024,1047,1019,1022,1019,1052,1032,1029,1029,1022,1030,1026,1026,1030,1025,1023,1031,1042,1050,1061,1070,1081,1085,1087,1092,1135,1106,1103,1104,1099,1104,1105,1102,1114,1101,1101,1099,1103,1099,1090,1090,1081,1080,1084,1077,1099,1081,1077,1077,1077,1078,1075,1077,1079,1070,1070,1070,1074,1071,1066,1062,1059,1053,1054,1054,1097,1077,1057,1057,1053,1049,1042,1054,1043,1041,1039,1034,1033,1035,1033,1031,1031,1034,1031,1037,1083,1040,1039,1051,1057,1071,1078,1086,1096,1103,1105,1110,1111,1109,1104,1107,1105,1113,1111,1115,1145,1121,1125,1120,1120,1123,1123,1117,1114,1109,1114,1104,1097,1099,1097,1095,1092,1093,1088,1091,1125,1097,1092,1082,1084,1085,1083,1086,1083,1076,1099,1078,1081,1076,1068,1070,1070,1062,1055,1056,1085,1051,1055,1040,1044,1049,1043,1044,1037,1034,1039,1038,1042,1043,1045,1038,1045,1046,1053,1060,1118,1103,1105,1112,1120,1126,1134,1134,1134,1132,1131,1131,1135,1139,1126,1131,1138,1131,1130,1127,1155,1134,1133,1127,1123,1122,1119,1120,1116,1107,1110,1107,1102,1103,1100,1096,1103,1099,1099,1098,1127,1115,1107,1103,1105,1099,1096,1093,1091,1090,1082,1084,1078,1071,1069,1067,1067,1058,1054,1063,1083,1058,1057,1057,1068,1061,1061,1059,1055,1062,1058,1055,1033,1049,1045,1038,1044,1046,1057,1067,1118,1099,1110,1123,1130,1135,1140,1137,1138,1141,1143,1139,1134,1135,1140,1133,1134,1122,1123,1120,1142,1122,1111,1106,1099,1096,1099,1094,1100,1096,1106,1109,1109,1108,1115,1111,1114,1114,1120,1112,1149,1121,1114,1104,1105,1093,1089,1082,1079,1069,1070,1066,1066,1064,1054,1054,1055,1055,1058,1058,1101,1079,1074,1075,1070,1067,1066,1065,1061,1054,1054,1046,1042,1040,1023,1040,1045,1050,1069,1080,1123,1112,1120,1123,1133,1135,1141,1137,1137,1137,1138,1138,1137,1127,1124,1120,1119,1107,1106,1102,1130,1102,1098,1099,1091,1089,1093,1098,1091,1094,1091,1094,1099,1100,1096,1094,1092,1088,1085,1077,1099,1074,1067,1067,1063,1050,1053,1057,1048,1053,1054,1054,1055,1057,1056,1054,1051,1050,1049,1045,1077,1044,1034,1030,1026,1024,1020,1016,1011,1015,1015,1018,1014,1021,1031,1040,1050,1073,1092,1105,1153,1133,1135,1140,1138,1134,1127,1125,1115,1111,1102,1099,1092,1085,1089,1086,1076,1072,1071,1067,1101,1074,1072,1070,1076,1070,1068,1068,1070,1070,1069,1062,1062,1056,1057,1044,1050,1038,1027,1027,1074,1040,1038,1031,1041,1039,1041,1039,1036,1038,1038,1042,1041,1036,1035,1034,1033,1025,1021,1012,1037,1044,1012,1007,1009,1002,997,995,996,996,997,1003,1015,1019,1038,1062,1071,1086,1097,1094,1141,1108,1101,1094,1088,1083,1091,1087,1083,1077,1076,1082,1079,1077,1075,1075,1075,1075,1077,1071,1105,1078,1067,1062,1057,1046,1047,1048,1097,1042,1029,1032,1033,1024,1031,1026,1018,1023,1023,1019,1055,1026,1019,1014,1012,1001,1002,1006,1000,994,991,988,989,981,979,980,973,976,979,972,995,981,976,973,971,967,965,960,961,963,974,984,1002,1021,1029,1035,1050,1056,1059,1060,1106,1077,1069,1063,1058,1056,1060,1056,1052,1049,1040,1035,1034,1033,1030,1029,1027,1026,1019,1016,1049,1033,1030,1034,1035,1025,1025,1027,1026,1030,1023,1025,1022,1017,1009,1013,1007,1000,1003,994,1035,1010,1000,993,998,991,991,985,988,989,1002,987,985,983,982,985,983,976,982,976,1007,991,995,1004,1015,1026,1036,1042,1054,1056,1057,1058,1056,1066,1059,1065,1065,1061,1064,1061,1103,1066,1060,1056,1050,1039,1046,1033,1028,1023,1017,1021,1024,1015,1015,1015,1017,1018,1017,1020,1066,1031,1027,1025,1018,1015,1013,1008,1001,996,995,989,994,986,986,984,984,990,982,977,1016,990,982,975,975,975,970,970,963,963,959,958,957,955,954,970,982,1003,1015,1025,1065,1054,1050,1053,1044,1050,1044,1042,1040,1043,1045,1042,1040,1040,1037,1031,1033,1027,1028,1024,1049,1029,1027,1028,1025,1019,1017,1015,1015,1012,1010,1005,1012,1009,1010,1012,1011,1005,1006,1003,1042,1001,996,999,990,984,987,979,970,976,970,970,971,971,978,969,974,976,971,975,1002,978,975,974,969,971,974,981,996,1012,1021,1025,1034,1043,1050,1060,1050,1048,1048,1048,1077,1050,1047,1045,1035,1032,1029,1024,1028,1021,1015,1018,1014,1005,1012,1009,1010,1005,1003,1001,1034,1009,1009,1016,1001,1006,997,992,993,984,986,983,979,987,983,979,975,979,975,974,1012,986,976,975,979,976,974,969,974,971,962,970,965,963,963,958,968,966,967,982,1028,1015,1032,1039,1056,1055,1061,1063,1060,1060,1065,1065,1055,1050,1050,1053,1052,1048,1048,1045,1080,1060,1046,1042,1038,1037,1034,1037,1039,1029,1029,1028,1027,1028,1028,1046,1023,1017,1015,1012,1046,1016,1012,1010,1006,1004,997,1002,1004,992,992,994,994,992,989,991,980,984,976,977,1005,980,977,970,963,971,960,959,962,964,965,965,973,982,1001,1012,1019,1032,1043,1053,1079,1065,1071,1063,1056,1057,1051,1056,1056,1053,1052,1050,1054,1056,1058,1045,1044,1041,1038,1041,1073,1041,1040,1039,1042,1038,1037,1034,1032,1030,1028,1025,1022,1024,1021,1019,1023,1010,1009,1011,1047,1018,1018,1017,1015,1012,1015,1012,1015,1015,1009,1009,1008,1006,997,997,993,991,985,984,1016,995,992,991,997,1008,1024,1031,1051,1066,1069,1081,1082,1083,1082,1078,1076,1063,1066,1063,1096,1073,1066,1066,1064,1055,1057,1054,1050,1046,1048,1050,1048,1043,1045,1046,1051,1054,1047,1047,1076,1079,1044,1042,1039,1037,1038,1034,1034,1028,1032,1026,1023,1026,1022,1021,1021,1015,1014,1011,1043,1021,1015,1014,1015,1015,1013,1012,1007,1010,1008,999,995,997,993,990,1003,1011,1027,1038,1096,1086,1096,1096,1103,1107,1109,1108,1104,1100,1098,1105,1093,1095,1092,1091,1087,1088,1094,1086,1121,1098,1090,1096,1092,1095,1087,1088,1087,1083,1075,1077,1073,1071,1063,1056,1055,1052,1055,1056,1087,1065,1061,1055,1058,1052,1047,1046,1043,1041,1034,1033,1036,1029,1023,1024,1015,1019,1011,1018,1045,1013,1016,1036,1014,1008,1014,1024,1037,1052,1066,1072,1086,1092,1099,1102,1101,1101,1106,1099,1142,1107,1102,1101,1103,1098,1101,1096,1091,1096,1089,1086,1083,1087,1080,1073,1072,1071,1071,1068,1100,1078,1073,1070,1066,1070,1062,1063,1057,1055,1053,1049,1043,1042,1035,1037,1034,1035,1027,1031,1062,1042,1037,1042,1029,1033,1027,1026,1023,1013,1012,1012,1018,1015,1031,1029,1047,1070,1075,1087,1131,1113,1108,1115,1110,1109,1118,1108,1108,1109,1105,1103,1096,1105,1097,1089,1094,1089,1087,1082,1125,1088,1088,1082,1078,1078,1073,1077,1073,1069,1067,1073,1070,1065,1066,1057,1059,1061,1056,1055,1080,1057,1051,1050,1042,1047,1041,1049,1031,1037,1036,1036,1034,1029,1029,1022,1022,1025,1013,1013,1044,1034,1012,1009,1015,1009,1013,1045,1035,1054,1057,1074,1087,1091,1103,1107,1105,1110,1114,1105,1154,1125,1112,1112,1107,1108,1099,1104,1102,1094,1094,1087,1089,1088,1087,1081,1085,1082,1087,1083,1113,1091,1090,1089,1085,1079,1073,1070,1065,1072,1064,1066,1058,1059,1062,1045,1049,1044,1042,1042,1082,1050,1044,1039,1035,1050,1032,1030,1027,1015,1018,1012,1013,1013,1006,1014,1010,1005,1006,995,1020,1002,997,1005,1012,1028,1045,1051,1074,1082,1091,1093,1158,1097,1095,1090,1090,1087,1086,1084,1112,1089,1088,1079,1075,1076,1074,1062,1063,1069,1054,1065,1060,1055,1069,1061,1066,1057,1055,1055,1075,1061,1042,1034,1026,1025,1024,1017,1022,1015,1019,1020,1015,1018,1015,1017,1019,1023,1014,1019,1051,1025,1017,1012,1006,1001,995,989,985,984,983,977,978,973,975,975,980,988,995,1013,1062,1050,1062,1069,1087,1078,1085,1088,1082,1086,1083,1076,1078,1078,1073,1065,1066,1059,1068,1062,1089,1073,1057,1066,1054,1060,1056,1054,1063,1058,1056,1057,1058,1054,1048,1047,1047,1046,1042,1041,1071,1037,1029,1030,1030,1026,1030,1025,1028,1024,1022,1017,1013,1008,1008,1001,997,997,990,990,1026,994,998,990,989,987,986,981,988,990,1002,1013,1027,1039,1048,1059,1060,1075,1074,1080,1111,1088,1082,1080,1079,1076,1074,1076,1070,1069,1065,1062,1061,1058,1050,1049,1047,1040,1045,1039,1080,1052,1042,1039,1039,1033,1032,1032,1030,1025,1028,1019,1018,1021,1014,1014,1010,1005,1006,1006,1028,1011,1000,998,997,993,995,986,988,982,977,982,982,979,973,974,970,977,969,969,1007,977,980,973,991,998,1005,1039,1039,1046,1056,1058,1057,1054,1058,1056,1065,1057,1055,1058,1094,1069,1070,1058,1055,1054,1050,1044,1034,1030,1027,1023,1031,1027,1029,1029,1027,1029,1037,1021,1066,1035,1030,1039,1020,1030,1014,1012,1017,1008,1006,1006,1001,1002,986,992,995,989,984,986,1022,986,994,977,977,970,970,975,967,957,964,960,949,951,962,972,989,1002,1015,1030,1063,1055,1063,1059,1057,1055,1055,1050,1043,1042,1037,1044,1044,1048,1043,1039,1033,1029,1024,1014,1050,1043,1025,1018,1022,1022,1014,1023,1018,1018,1021,1011,1020,1012,1011,1003,1005,998,1002,996,1039,1000,992,990,985,982,980,971,970,966,961,962,962,957,954,952,953,954,957,953,984,956,949,945,944,938,947,959,981,990,1006,1019,1024,1033,1033,1033,1039,1029,1026,1028,1065,1032,1032,1023,1025,1023,1024,1022,1017,1021,1010,1010,1011,997,1004,994,999,997,996,991,1022,1008,994,999,989,990,986,978,974,975,973,966,967,967,962,958,958,960,956,951,993,960,953,948,943,948,937,940,943,935,939,935,928,926,928,922,920,919,918,930,961,963,968,982,996,999,1012,1010,1011,1018,1015,1009,1008,1001,1010,1002,1004,1006,1010,1003,1032,1005,989,999,991,990,987,981,987,984,984,991,981,986,985,980,980,980,973,983,1011,983,979,976,962,965,960,954,954,947,961,944,942,944,942,937,936,933,931,924,955,931,925,922,918,919,915,912,909,898,905,897,903,913,925,942,958,969,982,998,1041,1018,1015,1015,1015,1010,1003,1006,1002,997,1003,1000,1003,998,1005,998,999,994,993,989,1016,998,986,989,984,979,977,974,974,974,972,981,975,976,977,972,969,973,971,973,1003,982,975,970,969,969,970,966,966,961,968,962,964,961,951,958,949,953,951,947,979,951,946,941,945,943,942,958,967,981,991,1023,1013,1019,1029,1030,1031,1028,1034,1022,1056,1031,1032,1032,1032,1031,1029,1022,1020,1015,1011,1011,1010,1009,1013,1007,1006,1011,1010,1004,1049,1012,1010,1011,1008,1014,998,998,998,998,1000,994,994,988,988,986,983,983,980,987,1007,992,983,969,976,971,969,971,961,967,956,954,955,947,949,944,945,943,948,951,997,978,1003,1005,1022,1034,1037,1038,1043,1041,1042,1043,1045,1039,1039,1040,1036,1038,1038,1034,1062,1040,1038,1035,1030,1023,1027,1021,1019,1011,1015,1017,1055,1013,1015,1010,1014,1010,1011,1007,1044,1014,1008,1007,997,995,993,993,991,981,981,980,973,979,978,980,978,971,974,971,1007,992,974,968,971,959,960,964,951,957,952,949,956,957,969,986,997,1010,1023,1025,1066,1057,1053,1054,1049,1050,1046,1041,1035,1048,1039,1043,1039,1032,1041,1029,1028,1028,1023,1018,1059,1030,1025,1031,1026,1032,1031,1026,1034,1034,1033,1029,1029,1026,1023,1020,1022,1021,1011,1003,1045,1021,1009,1014,1009,1002,1002,1006,1001,996,990,995,990,982,983,981,984,973,978,977,1004,978,976,970,975,959,964,965,965,985,989,1006,1025,1036,1052,1049,1061,1067,1067,1061,1105,1074,1057,1066,1058,1065,1061,1059,1062,1052,1051,1044,1035,1039,1038,1036,1031,1033,1030,1028,1062,1042,1042,1043,1039,1035,1034,1029,1029,1027,1033,1026,1023,1022,1017,1018,1023,1017,1018,1015,1047,1022,1010,1012,1010,1005,1003,998,1002,992,994,992,994,988,987,982,982,978,977,977,1003,981,976,972,983,977,999,1018,1027,1044,1055,1061,1066,1069,1090,1072,1074,1070,1068,1066,1105,1078,1075,1070,1063,1066,1069,1056,1053,1053,1053,1044,1040,1047,1048,1047,1060,1049,1046,1050,1091,1057,1046,1046,1044,1038,1031,1029,1025,1019,1027,1013,1018,1015,1008,1015,1006,1006,1008,1002,1034,1012,1006,999,1005,991,998,993,994,992,985,986,982,977,980,975,972,969,970,967,995,980,987,989,1006,1025,1037,1047,1062,1073,1076,1082,1082,1080,1081,1081,1079,1077,1074,1076,1107,1087,1085,1085,1082,1079,1063,1067,1057,1056,1065,1057,1057,1057,1061,1059,1052,1056,1055,1053,1088,1057,1053,1039,1051,1049,1040,1038,1030,1029,1026,1022,1028,1016,1013,1014,1030,1016,1011,1005,1039,1009,1003,1003,998,1003,996,995,991,993,989,989,983,985,978,977,978,966,968,975,1012,993,996,1013,1025,1038,1054,1068,1074,1080,1081,1084,1078,1082,1091,1077,1083,1082,1081,1078,1106,1089,1083,1074,1072,1071,1065,1060,1057,1057,1055,1054,1057,1054,1050,1053,1055,1055,1052,1049,1087,1058,1048,1048,1045,1036,1040,1032,1025,1027,1025,1015,1018,1010,1012,1011,1078,1008,1006,1002,1031,1005,1001,994,994,997,988,983,980,978,977,976,973,978,971,974,973,981,972,963,999,983,968,971,981,995,1006,1027,1035,1051,1053,1059,1069,1060,1065,1065,1063,1061,1063,1064,1111,1079,1074,1074,1080,1076,1072,1069,1058,1052,1045,1047,1043,1044,1044,1040,1040,1043,1035,1038,1072,1039,1038,1035,1025,1026,1024,1021,1021,1006,1012,998,997,998,988,990,986,989,983,980,1015,990,982,975,982,974,968,970,965,967,963,961,963,962,961,957,958,954,956,958,987,969,968,967,974,989,1001,1016,1033,1047,1050,1064,1065,1070,1078,1076,1079,1074,1075,1070,1109,1079,1074,1072,1071,1066,1063,1052,1053,1049,1050,1051,1045,1043,1045,1044,1042,1047,1041,1050,1065,1064,1059,1058,1058,1056,1053,1049,1047,1036,1035,1028,1027,1022,1017,1015,1012,1015,1011,1007,1050,1017,1010,1003,996,999,1000,997,993,999,992,992,994,998,991,994,990,983,981,973,996,974,971,971,979,994,1008,1023,1040,1054,1060,1073,1076,1083,1084,1083,1087,1080,1083,1074,1101,1074,1067,1063,1057,1061,1061,1055,1056,1054,1055,1047,1051,1052,1044,1051,1048,1046,1051,1047,1079,1044,1042,1038,1034,1027,1026,1030,1014,1018,1014,1010,998,999,1002,1000,993,998,992,997,1024,1002,995,994,984,990,984,976,963,967,965,962,958,960,950,954,956,952,955,951,995,960,958,967,964,976,995,1009,1019,1026,1034,1030,1040,1034,1037,1034,1034,1038,1041,1034,1066,1042,1032,1027,1025,1021,1013,1015,1013,1011,1009,1006,998,995,997,991,1001,993,992,1012,1019,992,990,987,978,976,964,960,957,960,956,949,951,947,943,933,935,935,941,927,955,932,933,928,924,918,915,916,914,912,914,904,902,901,902,901,899,892,898,895,926,905,911,925,937,958,965,977,995,992,994,1000,995,1002,1000,996,1003,1002,998,999,1023,1001,989,990,980,985,981,979,975,975,973,972,978,967,967,969,971,970,965,963,983,971,964,964,955,945,949,948,951,946,948,944,944,938,936,938,925,931,924,927,941,939,937,925,925,925,923,926,921,925,921,920,926,941,951,970,975,991,1002,1017,1012,987,985,990,983,992,991,986,989,990,983,977,974,970,982,966,969,960,952,956,975,961,952,947,953,949,954,951,947,954,946,944,944,944,944,938,933,934,926,924,954,933,930,933,951,960,977,998,1004,1015,1022,1023,1032,1030,1030,1034,1031,1034,1034,1031,1065,1041,1040,1034,1028,1024,1025,1026,1018,1013,1021,1024,1015,1019,1013,1019,1020,1018,1017,1015,1051,1026,1021,1014,1015,1012,1004,1001,997,989,993,985,983,979,974,976,980,978,981,978,1014,981,976,973,967,965,955,954,954,949,946,941,944,963,982,992,1014,1035,1044,1054,1098,1079,1075,1075,1069,1074,1076,1070,1070,1072,1068,1072,1081,1071,1070,1066,1061,1060,1059,1053,1084,1054,1045,1044,1043,1042,1044,1035,1039,1041,1037,1043,1031,1034,1034,1029,1028,1024,1022,1015,1052,1028,1020,1013,1016,1011,1010,1006,1008,1001,1003,999,993,995,992,990,985,980,978,971,1010,987,983,987,995,1002,1023,1034,1045,1068,1068,1078,1075,1073,1083,1076,1076,1076,1085,1081,1106,1096,1093,1092,1085,1089,1083,1077,1077,1070,1071,1061,1059,1067,1063,1071,1068,1069,1066,1061,1105,1070,1067,1065,1063,1054,1052,1048,1042,1043,1038,1035,1034,1030,1030,1025,1025,1024,1022,1017,1042,1030,1022,1015,1013,1012,1012,1002,999,997,995,989,987,989,983,980,983,983,992,1003,1056,1041,1063,1063,1078,1086,1092,1096,1100,1096,1097,1098,1095,1097,1096,1093,1097,1093,1092,1094,1122,1102,1090,1088,1080,1079,1077,1076,1074,1075,1077,1079,1079,1078,1076,1077,1077,1074,1077,1070,1103,1077,1071,1059,1054,1053,1047,1047,1041,1040,1041,1037,1036,1035,1034,1034,1034,1031,1025,1029,1052,1026,1022,1028,1013,1018,1014,1006,1009,998,995,992,990,983,983,971,971,981,981,1001,1047,1041,1056,1059,1077,1088,1093,1095,1092,1095,1098,1096,1094,1101,1087,1093,1096,1093,1092,1091,1121,1105,1090,1088,1136,1082,1079,1079,1077,1079,1076,1078,1078,1073,1077,1066,1065,1061,1055,1058,1091,1065,1062,1052,1052,1041,1039,1042,1037,1040,1030,1032,1033,1027,1031,1021,1019,1018,1019,1012,1052,1041,1010,1010,1008,1004,997,999,992,989,991,998,1004,1023,1044,1058,1070,1074,1086,1094,1118,1098,1099,1094,1092,1088,1082,1079,1077,1078,1081,1074,1071,1069,1061,1063,1057,1059,1057,1057,1100,1076,1067,1070,1075,1067,1061,1057,1056,1052,1043,1039,1034,1033,1030,1028,1031,1032,1026,1026,1047,1036,1030,1026,1022,1008,1018,1009,1014,1011,1008,1008,1000,994,996,992,991,990,985,985,1018,994,980,974,979,983,1002,1012,1027,1041,1060,1067,1082,1087,1090,1095,1091,1089,1086,1089,1117,1091,1088,1089,1088,1087,1085,1084,1088,1084,1082,1075,1077,1075,1072,1066,1063,1052,1058,1042,1098,1060,1053,1060,1048,1054,1052,1049,1053,1043,1040,1040,1043,1035,1039,1030,1034,1029,1022,1025,1043,1025,1014,1012,1012,1009,1010,1002,1005,996,995,995,990,992,985,986,979,976,968,967,1004,977,979,982,1002,1020,1028,1047,1060,1074,1081,1086,1084,1081,1083,1086,1079,1091,1087,1095,1112,1091,1101,1080,1090,1078,1073,1070,1071,1066,1063,1062,1059,1061,1062,1063,1053,1050,1050,1039,1086,1052,1047,1037,1035,1035,1024,1025,1027,1013,1021,1011,1012,1008,1009,1002,999,993,989,991,1018,997,997,992,990,983,982,983,978,974,969,971,965,961,962,956,953,951,953,946,994,970,981,993,1013,1026,1044,1057,1061,1070,1061,1070,1070,1068,1069,1071,1072,1071,1070,1070,1098,1073,1069,1061,1050,1052,1044,1039,1035,1040,1039,1039,1037,1036,1035,1039,1034,1033,1037,1033,1061,1034,1025,1023,1015,1020,1009,1010,1009,1000,1000,999,996,999,993,991,989,981,980,980,1001,984,973,967,960,962,963,954,959,960,960,961,957,954,948,950,943,944,931,937,967,953,964,977,998,1007,1024,1029,1038,1035,1046,1043,1040,1041,1039,1046,1040,1041,1035,1031,1062,1044,1035,1033,1030,1019,1015,1015,1011,1012,1013,1009,1009,1003,1007,1009,1003,1010,1003,1005,1038,1010,1006,1006,999,994,984,1002,980,974,967,965,963,962,956,953,948,948,954,943,987,953,943,988,949,942,939,932,930,925,921,914,915,917,919,911,907,913,899,917,948,944,947,961,983,991,1010,1029,1015,1027,1018,1022,1021,1016,1008,1006,1002,1004,1002,997,1040,1007,997,997,993,992,989,992,981,985,987,983,983,979,981,979,976,973,971,967,990,970,969,954,953,953,942,946,936,937,934,937,933,934,927,930,922,918,919,916,959,927,929,919,912,912,906,902,915,898,893,887,890,893,894,904,925,938,957,964,1011,992,992,991,990,984,984,971,970,968,970,966,964,966,962,960,962,954,957,955,997,955,955,951,949,949,942,942,945,943,940,942,940,938,931,928,926,929,918,911,947,911,906,906,902,901,893,895,889,885,880,877,882,881,877,879,879,870,872,869,902,876,871,874,867,862,855,855,856,858,870,871,889,909,923,942,948,953,961,959,992,965,961,962,954,952,958,950,955,960,945,949,945,944,944,934,936,931,928,928,958,942,932,930,981,919,932,922,924,921,917,918,913,907,902,904,902,902,893,896,921,894,898,887,891,883,884,882,878,874,870,864,866,862,861,862,861,860,857,860,887,857,852,840,847,852,842,853,866,883,897,914,923,937,944,946,942,942,939,937,969,949,943,939,941,932,931,928,927,919,921,911,908,910,900,907,902,902,910,896,933,911,901,897,899,894,895,896,888,889,903,883,878,879,878,871,876,866,860,860,889,867,861,855,853,851,846,846,840,841,835,837,842,832,837,829,827,826,825,822,861,831,826,825,823,825,830,845,863,873,890,897,909,913,920,926,922,920,920,919,949,931,917,924,915,911,907,905,907,900,901,897,899,893,891,896,888,895,890,896,930,896,894,890,889,883,882,879,878,873,869,869,866,865,862,862,863,863,856,851,882,861,850,852,847,841,845,840,843,841,834,840,830,830,832,829,822,820,815,810,846,816,827,805,821,830,835,858,868,877,888,896,902,909,909,901,899,897,904,896,935,915,903,911,900,904,892,858,883,875,874,869,868,867,865,863,867,866,865,857,909,866,867,864,864,862,864,861,851,860,849,845,842,835,833,830,831,822,826,822,849,820,818,821,815,813,812,812,814,814,808,811,803,796,798,787,790,784,788,794,827,814,819,838,845,863,870,878,882,882,881,883,882,881,881,879,877,881,881,876,910,880,878,868,869,879,853,856,850,851,854,850,853,848,850,852,852,854,851,846,888,855,848,847,841,843,839,834,830,820,823,816,816,815,813,808,806,808,805,805,840,809,804,801,803,787,798,791,788,785,782,783,779,777,775,772,774,776,781,792,835,830,836,850,860,867,880,877,876,874,874,880,880,870,869,868,870,873,874,869,896,879,869,861,860,858,861,866,854,857,857,857,871,859,855,855,854,858,851,846,873,851,854,847,845,847,836,845,836,828,834,824,824,826,825,823,817,818,818,811,850,828,814,813,812,801,807,799,799,795,794,786,785,788,779,778,790,796,819,832,872,864,869,876,883,884,886,886,884,885,886,885,882,885,885,879,884,875,874,877,906,876,871,871,868,868,872,864,865,869,866,873,871,868,869,864,863,863,856,854,879,865,862,855,857,846,842,837,835,838,837,832,836,820,823,823,818,814,817,813,851,831,822,816,818,817,820,809,813,803,802,801,796,795,795,795,787,794,799,805,849,843,855,867,874,887,898,897,899,905,906,906,899,900,900,895,907,895,893,893,926,899,886,887,884,878,878,884,878,885,880,878,880,882,886,875,879,874,877,882,894,877,873,869,866,864,858,862,859,849,855,845,846,844,842,838,835,831,829,834,871,836,836,830,826,827,822,815,817,811,811,809,812,806,803,801,800,795,797,792,823,807,811,815,827,846,854,874,883,886,899,894,907,896,898,896,900,900,901,898,938,928,907,899,900,897,895,854,891,889,883,887,877,887,883,883,891,887,889,884,921,895,891,885,881,876,873,868,866,860,852,854,854,848,847,847,845,843,836,838,880,847,845,843,839,833,835,830,826,823,823,819,819,815,812,810,805,802,805,803,826,801,799,794,790,785,791,803,825,833,853,867,869,886,898,900,898,900,900,896,931,898,894,884,886,886,882,885,881,880,871,873,869,863,861,862,859,862,863,861,889,871,863,869,863,862,864,856,853,851,849,852,849,853,849,845,846,836,836,835,864,833,833,826,825,821,816,813,810,812,805,806,804,800,801,791,798,794,787,797,813,798,788,786,784,781,779,792,804,816,839,841,861,864,867,880,874,881,882,878,916,885,879,878,876,873,878,868,864,860,857,848,846,839,834,832,850,832,831,833,866,843,842,838,833,833,829,834,823,814,813,814,807,799,803,797,796,789,785,789,820,789,793,786,783,776,784,778,767,773,763,766,765,767,758,759,758,747,755,746,766,745,740,736,728,735,734,749,759,781,795,807,822,826,841,846,849,855,851,848,891,854,854,846,847,843,838,845,842,832,837,833,836,833,834,826,827,827,829,826,861,840,831,831,824,823,823,811,812,808,802,805,803,804,797,792,793,810,791,785,823,794,782,785,782,777,775,773,790,771,765,762,761,756,759,755,755,756,754,750,774,756,744,740,739,736,735,739,745,759,778,797,812,822,833,835,839,842,839,841,876,850,848,842,838,842,836,840,840,833,840,834,833,835,828,821,813,810,811,806,836,824,807,813,805,805,803,802,807,802,809,801,797,793,793,794,785,787,775,779,806,786,781,773,776,770,773,766,766,757,762,756,749,747,746,746,748,746,743,745,772,752,747,741,739,732,732,738,755,763,777,799,808,818,830,834,831,834,832,835,864,857,835,831,833,829,831,828,823,819,810,806,806,800,798,799,793,792,777,795,832,806,812,805,805,809,800,799,797,789,786,779,782,777,776,771,771,772,766,762,792,774,771,767,764,762,766,759,760,751,749,747,742,741,742,738,735,731,729,731,766,759,771,784,795,802,815,825,829,828,826,823,830,822,821,821,820,815,820,816,849,818,817,807,805,798,796,801,797,768,797,798,795,796,795,797,799,795,794,796,825,802,796,792,782,778,772,765,763,765,756,757,759,754,754,751,749,745,746,744,774,756,751,743,741,733,725,722,724,717,716,723,733,745,759,773,800,807,816,826,867,848,838,843,845,844,841,839,842,838,841,833,829,834,826,823,822,818,819,823,843,826,822,824,815,806,808,805,801,805,797,804,798,795,800,796,794,795,792,790,826,796,785,785,781,781,783,786,773,772,776,771,774,768,768,768,770,763,764,755,779,759,757,762,763,772,792,802,822,827,849,855,852,871,867,867,871,865,871,869,910,882,873,870,870,874,871,865,858,861,853,854,856,845,849,846,847,847,845,848,871,856,852,848,852,843,852,841,839,840,835,836,831,829,826,821,819,816,815,807,836,806,802,800,799,793,788,788,782,777,780,778,778,773,770,767,762,764,766,774,814,850,829,836,853,865,868,878,883,879,884,881,881,881,884,880,880,879,878,876,912,882,874,873,862,862,863,858,860,858,852,854,855,855,852,854,852,848,848,842,869,850,844,838,833,828,823,821,821,817,815,814,810,811,808,802,814,803,803,803,836,801,793,789,779,782,775,772,778,768,772,766,761,758,765,765,778,802,808,833,869,869,874,875,882,880,882,877,878,874,877,870,875,869,867,874,864,872,862,861,895,864,858,850,853,851,847,847,852,849,852,845,847,847,839,841,834,833,831,825,855,854,827,823,818,813,813,813,808,811,800,807,800,800,803,794,790,792,787,783,821,793,787,776,783,774,774,771,764,773,757,767,759,757,755,757,769,781,802,815,868,850,868,868,868,877,869,873,866,875,867,862,864,862,864,865,862,860,854,849,876,852,847,843,841,844,832,832,832,830,835,835,832,828,818,814,816,817,819,814,852,820,813,803,802,807,802,802,799,789,792,798,784,786,775,775,767,773,770,767,804,778,774,769,768,762,762,758,752,754,749,750,752,756,774,785,806,817,831,837,884,862,851,854,853,845,842,851,845,840,842,840,840,832,831,832,834,823,824,822,846,830,831,821,817,823,811,810,814,815,808,810,806,803,801,795,793,798,782,788,829,795,787,785,775,777,772,764,766,763,762,757,755,759,755,753,747,746,754,738,774,753,745,744,736,727,727,729,735,734,753,771,784,799,826,828,845,848,855,861,897,870,864,865,858,859,860,861,861,858,855,849,849,846,845,838,837,832,825,829,855,833,833,829,829,822,817,819,812,814,810,808,806,799,797,793,784,780,776,773,804,777,772,772,766,775,766,769,760,757,770,758,761,755,759,754,755,749,745,753,780,759,742,752,740,743,745,744,767,773,793,801,824,835,842,843,841,846,844,844,864,862,846,845,834,834,838,838,845,841,834,836,828,828,826,823,819,822,815,818,853,828,828,822,821,815,812,806,806,807,793,797,786,786,781,780,779,775,776,772,803,779,772,776,770,770,763,769,763,768,759,756,752,748,747,742,744,739,741,732,771,740,736,733,723,726,717,725,726,736,759,773,791,803,819,829,833,838,839,843,867,848,842,845,837,842,837,837,834,834,833,827,826,820,815,811,810,810,807,808,838,820,813,815,807,821,811,802,794,790,796,793,794,780,782,775,767,772,766,766,787,791,749,751,744,739,734,735,741,736,737,734,737,732,730,734,733,725,729,726,746,728,723,721,721,717,728,734,754,764,787,804,817,821,823,829,831,829,830,837,874,853,850,842,846,843,847,840,834,830,821,818,814,809,806,805,799,804,803,798,836,806,806,800,796,799,790,788,786,787,786,784,786,765,761,769,755,757,750,741,784,759,751,751,746,739,738,734,741,731,737,730,726,722,713,722,720,715,718,724,760,754,766,781,798,809,814,819,822,822,820,819,819,809,810,805,805,806,807,803,830,808,790,784,784,778,776,773,774,773,777,774,788,781,783,787,778,776,774,770,800,776,768,769,758,752,746,739,739,735,732,727,728,721,724,720,717,716,720,713,735,722,713,709,704,699,699,691,689,683,690,707,726,741,762,780,789,800,807,815,852,822,819,821,817,817,820,812,809,812,806,810,797,807,796,788,794,792,785,787,813,791,787,785,782,780,773,778,775,771,769,769,770,759,758,758,755,754,750,749,783,761,755,749,746,741,739,734,730,734,733,717,729,720,718,712,710,709,707,708,745,732,736,754,761,776,784,798,813,805,817,814,812,817,818,817,814,813,811,810,838,819,808,805,800,789,794,779,786,786,784,783,778,783,780,782,781,779,778,778,811,776,776,775,768,765,770,802,763,765,757,756,754,756,747,743,741,739,733,739,755,738,731,730,730,721,730,723,717,717,714,710,709,711,708,713,729,753,763,789,828,815,821,819,829,824,827,825,820,819,818,821,815,814,817,816,813,806,811,804,837,809,806,802,798,800,795,792,795,792,796,792,786,786,786,779,775,774,769,768,794,779,768,766,764,759,763,759,757,753,750,746,748,745,739,738,740,733,729,731,758,739,731,726,722,719,713,713,699,712,709,714,729,740,793,774,785,801,809,811,846,855,828,823,821,825,813,814,816,816,814,810,810,806,805,796,798,795,783,787,822,790,791,790,788,786,787,788,785,783,781,777,775,768,770,769,758,756,757,755,788,758,751,746,742,743,741,735,734,729,718,716,717,713,714,712,712,706,711,709,734,715,709,703,694,696,686,689,679,679,682,681,699,710,734,740,762,772,781,787,825,799,794,801,784,796,795,791,796,786,790,788,787,775,784,771,766,766,759,762,787,769,761,762,760,760,757,758,755,750,753,751,746,742,732,738,726,733,725,722,756,725,724,712,714,706,705,701,701,695,698,693,696,694,679,685,681,681,687,674,715,679,674,664,655,664,654,657,657,658,667,674,686,705,717,728,743,751,759,751,784,761,758,763,756,757,751,756,755,753,750,745,742,734,738,724,725,728,722,721,761,733,732,733,722,722,717,712,710,709,690,699,705,690,693,695,692,691,687,680,711,688,682,675,680,672,671,667,667,664,664,658,658,648,651,646,645,646,644,643,665,642,634,632,631,626,622,620,624,627,645,657,677,690,703,722,734,735,740,738,772,746,740,738,735,725,725,721,724,722,722,731,719,723,717,720,715,711,707,705,737,712,706,703,704,703,702,698,697,697,692,692,691,684,679,674,675,669,665,666,699,666,663,659,660,655,658,656,651,652,647,684,644,639,637,644,628,628,626,626,657,635,630,632,642,653,670,681,686,698,709,701,718,714,714,716,708,710,706,709,732,720,714,713,711,708,702,694,693,682,690,679,688,682,683,677,671,678,669,677,711,690,676,675,666,662,664,658,659,651,651,651,642,640,640,641,637,649,640,640,677,654,646,637,638,637,629,625,627,624,618,620,624,629,643,658,671,688,700,708,747,734,736,729,734,724,725,724,706,726,710,710,718,700,713,699,703,694,696,692,734,720,697,696,693,694,690,705,681,683,682,674,682,667,676,675,672,671,678,676,704,692,678,684,674,672,668,663,660,656,656,650,650,646,643,639,640,635,634,633,660,652,659,670,683,699,715,723,730,732,729,732,727,724,722,723,717,717,717,714,748,721,714,705,708,708,708,703,703,713,706,707,705,704,704,703,700,701,695,692,719,696,684,682,683,672,674,674,669,667,668,666,655,657,646,654,656,650,640,641,671,650,641,636,635,629,627,623,622,627,638,648,671,683,695,707,720,726,727,730,762,739,731,728,724,723,717,720,721,715,706,706,700,697,694,695,689,686,689,693,725,704,702,704,697,692,695,693,686,678,678,673,672,668,671,658,659,658,654,654,690,668,663,662,658,656,653,651,642,644,640,630,634,621,626,622,627,633,634,644,696,683,689,705,723,722,729,743,738,738,734,731,727,721,730,721,722,721,719,715,743,716,713,707,706,709,703,710,708,709,707,711,708,708,710,703,701,701,696,695,736,702,698,697,691,689,684,687,686,687,686,679,678,674,675,679,671,667,663,662,682,660,651,648,646,644,648,637,659,669,686,711,719,736,748,754,759,763,766,764,799,781,776,774,777,772,782,767,774,771,777,771,760,768,759,757,754,758,759,756,795,762,766,749,754,747,741,743,739,730,731,733,722,719,716,719,711,748,713,704,729,713,707,693,694,694,684,688,687,679,677,674,671,670,668,660,659,659,654,650,691,662,668,684,687,709,726,741,752,759,759,767,767,772,770,767,767,767,772,769,809,779,781,776,768,762,761,757,751,753,741,745,741,741,740,746,742,741,737,742,762,747,734,725,725,710,709,710,706,709,691,701,698,694,695,695,693,693,686,686,720,690,687,682,687,673,671,673,674,669,670,665,663,657,656,654,654,652,646,648,679,656,658,655,661,678,692,734,732,741,757,756,766,767,762,772,766,774,772,773,803,784,780,779,779,776,769,781,759,756,753,740,746,740,744,749,749,750,741,741,782,758,744,745,733,734,726,724,718,725,724,714,721,703,712,706,703,697,700,705,733,713,699,701,696,693,695,691,682,682,677,668,670,663,658,663,656,657,655,656,670,657,658,644,639,640,634,634,644,661,673,693,712,722,738,746,753,768,756,759,801,759,763,760,759,758,762,758,758,754,750,745,750,743,733,746,729,737,733,722,765,728,734,730,724,721,722,720,718,718,712,709,702,699,698,701,687,698,691,686,714,689,690,686,683,674,672,670,667,667,663,666,658,660,654,650,655,651,647,648,678,655,645,642,643,631,625,624,625,629,629,635,652,672,691,704,720,733,738,746,766,748,748,743,737,738,739,735,736,736,728,728,720,719,712,712,706,708,700,708,738,716,719,718,720,714,710,712,707,706,703,704,700,701,690,686,681,681,684,675,719,678,674,670,669,666,666,661,660,658,650,650,653,651,642,643,637,641,640,630,659,639,628,629,634,642,655,671,693,705,723,735,740,742,748,743,747,740,742,745,763,752,746,747,745,736,731,730,723,718,712,718,709,704,703,702,698,706,698,706,743,719,714,708,707,704,695,700,691,689,687,681,677,674,670,664,666,658,658,662,692,654,663,652,648,649,641,639,637,637,634,634,628,628,618,622,618,614,611,602,636,617,627,633,648,667,685,697,709,715,729,733,728,733,726,736,725,730,734,723,762,731,729,722,724,710,713,708,704,702,695,693,693,693,693,690,692,691,693,692,719,703,694,688,686,677,676,673,675,675,664,668,662,655,657,652,650,652,646,652,667,652,649,640,638,635,634,629,630,621,625,624,624,616,612,618,605,608,606,604,751,722,721,708,709,702,690,690,690,693,692,687,686,684,683,680,680,677,680,671,699,681,669,671,665,664,655,656,651,643,648,643,641,638,638,635,635,631,626,624,652,628,617,622,619,613,611,606,609,600,606,600,596,589,589,591,585,577,571,573,600,577,587,598,619,639,656,677,687,697,706,705,710,706,704,694,700,700,696,705,729,695,696,695,693,686,686,681,676,680,670,672,666,666,670,670,668,668,668,664,713,671,666,668,663,653,661,656,653,638,644,642,636,640,632,634,630,630,631,627,664,637,627,626,622,613,615,614,607,608,596,601,597,592,596,592,588,579,584,579,597,590,575,568,579,579,585,607,623,642,664,678,689,699,711,704,709,705,706,708,735,713,708,708,706,713,706,705,703,695,691,686,685,677,676,674,674,672,676,675,709,680,684,668,674,669,666,670,659,659,650,649,640,646,635,633,628,631,632,622,650,626,628,617,621,614,613,608,609,610,601,606,596,599,596,594,594,583,586,582,609,590,585,580,570,567,576,574,582,595,612,629,649,658,671,679,677,686,683,683,722,695,691,686,684,679,682,676,675,669,664,660,656,655,648,650,644,648,651,647,672,655,656,645,649,642,641,648,626,635,624,621,617,607,614,603,611,598,594,592,628,604,601,589,585,582,578,577,575,579,571,574,570,578,574,564,568,560,563,556,597,562,555,554,546,550,538,547,540,547,557,570,590,610,630,643,650,662,663,664,704,673,669,666,664,664,664,660,661,661,662,659,654,654,655,657,658,656,658,655,678,660,659,665,660,656,657,645,643,642,639,634,632,623,621,622,616,609,607,608,637,608,606,605,603,590,597,595,588,587,580,581,577,582,575,577,575,565,571,559,602,574,571,570,561,566,556,559,556,559,576,590,606,629,640,653,660,669,669,673,698,696,681,677,678,671,669,677,674,672,666,661,662,656,652,655,656,659,659,658,690,670,668,668,669,659,663,656,656,650,650,650,645,640,641,639,637,635,632,627,665,638,629,625,621,626,621,619,615,619,611,610,612,608,609,598,604,599,596,592,627,597,600,606,611,627,643,661,675,687,697,705,707,714,707,714,711,710,711,708,747,714,720,717,721,712,709,708,704,694,693,692,697,685,696,701,687,698,695,694,723,701,698,692,692,693,693,683,688,680,685,676,674,678,668,666,660,660,656,655,690,665,654,649,644,644,641,633,639,635,633,628,623,629,617,618,614,613,610,615,653,643,651,671,684,704,715,728,736,742,739,743,740,740,741,741,742,739,739,747,772,755,752,736,744,728,732,725,724,727,721,725,721,723,720,722,722,726,720,726,757,720,713,708,705,705,698,687,695,680,690,679,679,681,663,676,662,667,662,666,700,668,660,651,650,643,648,641,634,634,631,632,628,631,621,616,615,618,617,614,660,639,651,667,682,699,718,725,736,744,744,754,751,754,750,749,746,746,752,749,784,759,755,755,747,741,737,734,729,726,724,720,721,718,723,720,723,722,723,718,738,733,722,718,720,710,719,711,711,706,703,703,698,697,693,689,690,689,686,686,710,694,678,682,674,667,727,664,659,655,657,645,644,646,638,639,631,633,635,628,665,631,633,619,626,635,642,672,673,705,718,733,739,743,751,756,758,755,756,753,787,767,766,765,760,759,752,762,755,750,748,743,736,737,733,733,735,735,729,731,755,746,735,732,725,729,721,718,722,706,706,705,704,705,693,689,697,689,687,681,704,689,683,683,680,678,673,669,667,667,664,667,657,656,654,652,647,652,646,648,685,650,651,638,643,636,636,706,645,666,672,697,710,730,738,758,763,767,768,773,803,797,775,772,774,765,769,777,767,756,755,755,754,748,739,750,736,739,740,739,757,743,746,739,740,741,734,728,730,729,727,718,715,712,706,708,700,703,694,694,723,705,700,694,690,691,689,686,688,689,677,674,673,664,667,659,660,654,658,650,692,659,646,648,648,641,634,630,624,631,643,657,679,701,719,740,748,762,751,770,798,775,775,765,772,761,766,763,731,762,759,758,754,748,748,741,735,743,731,736,762,753,739,738,729,734,732,721,730,710,719,709,708,705,702,695,688,692,679,678,701,683,678,675,674,668,670,667,663,660,657,661,661,655,656,648,652,642,638,637,680,643,637,637,624,628,626,619,619,616,615,621,630,645,662,685,702,712,734,738,783,753,745,750,736,738,738,730,736,739,735,736,731,734,729,717,723,716,713,706,740,716,710,705,710,704,704,694,713,700,688,689,677,684,676,675,672,675,674,669,695,675,670,665,665,659,660,663,656,652,646,643,645,641,636,638,633,634,628,628,663,632,631,621,627,626,641,653,670,693,708,721,733,736,740,738,735,727,730,727,762,731,730,720,720,719,712,710,702,693,695,680,683,686,680,684,678,681,688,690,721,697,693,690,686,679,676,676,668,660,659,659,653,656,648,644,646,638,638,636,651,635,638,624,629,621,619,618,610,632,611,613,610,614,606,611,609,598,599,603,654,638,654,670,698,703,721,728,729,729,736,738,731,746,725,725,722,728,717,724,758,732,725,714,721,713,708,701,699,697,693,692,686,686,679,685,685,682,680,680,709,689,677,677,673,666,668,656,655,657,647,643,642,642,636,642,639,634,639,637,672,644,637,636,