0.840000 0.150000 0.800000 0.150000 0.120000 47049.000000 54923.000000 62970.000000 
0.520000 0.040000 0.480000 0.170000 0.140000 10569.000000 2437.000000 8932.000000 
0.430000 0.090000 0.360000 0.230000 0.140000 173417.000000 151258.000000 203042.000000 
0.780000 0.080000 0.530000 0.300000 0.240000 6293.000000 4229.000000 4742.000000 
0.760000 0.220000 0.520000 0.170000 0.070000 3294.000000 2710.000000 3480.000000 
0.580000 0.220000 0.450000 0.140000 0.140000 4215.000000 1713.000000 1713.000000 
0.500000 0.060000 0.300000 0.120000 0.120000 661.000000 -2007.000000 -2007.000000 
0.720000 0.150000 0.570000 0.230000 0.220000 4212.000000 4688.000000 5093.000000 
0.770000 0.080000 0.660000 0.130000 0.070000 1826.000000 1925.000000 2867.000000 
0.650000 0.100000 0.480000 0.230000 0.220000 3514.000000 -20.000000 752.000000 
0.740000 0.280000 0.540000 0.190000 0.190000 2121.000000 895.000000 895.000000 
0.790000 0.230000 0.510000 0.110000 0.090000 3759.000000 2052.000000 2071.000000 
0.710000 0.290000 0.410000 0.140000 0.140000 4476.000000 2855.000000 2855.000000 
0.780000 0.290000 0.450000 0.070000 0.070000 4307.000000 3352.000000 3352.000000 
0.830000 0.260000 0.550000 0.170000 0.150000 4460.000000 3081.000000 3108.000000 
0.730000 0.250000 0.520000 0.100000 0.100000 3703.000000 2693.000000 2693.000000 
0.790000 0.270000 0.400000 0.200000 0.200000 3990.000000 1545.000000 1545.000000 
0.790000 0.270000 0.500000 0.130000 0.130000 4002.000000 1964.000000 1964.000000 
0.700000 0.240000 0.470000 0.080000 0.080000 4478.000000 3287.000000 3287.000000 
0.700000 0.240000 0.450000 0.080000 0.060000 4326.000000 3861.000000 3935.000000 
0.670000 0.290000 0.430000 0.140000 0.140000 4812.000000 3267.000000 3267.000000 
0.750000 0.230000 0.500000 0.110000 0.110000 4506.000000 3575.000000 3575.000000 
0.660000 0.240000 0.360000 0.140000 0.140000 4171.000000 3491.000000 3491.000000 
0.610000 0.300000 0.420000 0.230000 0.230000 7555.000000 3376.000000 3376.000000 
0.750000 0.260000 0.480000 0.180000 0.180000 5948.000000 2972.000000 2972.000000 
0.700000 0.240000 0.480000 0.180000 0.180000 5189.000000 2979.000000 2979.000000 
0.660000 0.250000 0.380000 0.130000 0.130000 4035.000000 1912.000000 1912.000000 
0.770000 0.260000 0.520000 0.160000 0.160000 6950.000000 4588.000000 4588.000000 
0.790000 0.280000 0.510000 0.090000 0.060000 7425.000000 6555.000000 6639.000000 
0.790000 0.220000 0.530000 0.160000 0.160000 6595.000000 4842.000000 4842.000000 
0.690000 0.240000 0.410000 0.120000 0.120000 5821.000000 3561.000000 3561.000000 
0.700000 0.260000 0.440000 0.210000 0.210000 6198.000000 3430.000000 3430.000000 
0.730000 0.290000 0.490000 0.150000 0.150000 5471.000000 3717.000000 3717.000000 
0.710000 0.260000 0.440000 0.240000 0.240000 5392.000000 2656.000000 2656.000000 
0.690000 0.250000 0.410000 0.100000 0.100000 6418.000000 5100.000000 5100.000000 
0.690000 0.250000 0.450000 0.210000 0.210000 6188.000000 3405.000000 3405.000000 
0.670000 0.240000 0.430000 0.160000 0.160000 6393.000000 4274.000000 4274.000000 
0.740000 0.260000 0.480000 0.090000 0.090000 7924.000000 6538.000000 6538.000000 
0.740000 0.310000 0.500000 0.120000 0.120000 7221.000000 3197.000000 3197.000000 
0.710000 0.260000 0.470000 0.080000 0.080000 7324.000000 5465.000000 5465.000000 
0.620000 0.250000 0.440000 0.180000 0.180000 6808.000000 4346.000000 4346.000000 
0.820000 0.270000 0.540000 0.110000 0.110000 7559.000000 6370.000000 6370.000000 
0.760000 0.250000 0.510000 0.210000 0.210000 8625.000000 5761.000000 5761.000000 
0.730000 0.250000 0.500000 0.230000 0.230000 8844.000000 5149.000000 5149.000000 
0.760000 0.250000 0.520000 0.120000 0.120000 7399.000000 5108.000000 5108.000000 
0.800000 0.230000 0.570000 0.150000 0.150000 7176.000000 5476.000000 5476.000000 
0.750000 0.280000 0.470000 0.190000 0.190000 8255.000000 4609.000000 4609.000000 
0.780000 0.240000 0.530000 0.150000 0.150000 7017.000000 5362.000000 5362.000000 
0.700000 0.210000 0.460000 0.180000 0.180000 5683.000000 2726.000000 2726.000000 
0.710000 0.250000 0.450000 0.230000 0.230000 6900.000000 3378.000000 3378.000000 
0.730000 0.270000 0.450000 0.120000 0.120000 8095.000000 5645.000000 5645.000000 
0.770000 0.310000 0.510000 0.130000 0.130000 9478.000000 7564.000000 7564.000000 
0.720000 0.260000 0.490000 0.160000 0.160000 8209.000000 4800.000000 4800.000000 
0.710000 0.250000 0.450000 0.280000 0.280000 8966.000000 3233.000000 3233.000000 
0.720000 0.270000 0.490000 0.090000 0.090000 9440.000000 7968.000000 7968.000000 
0.730000 0.270000 0.430000 0.160000 0.160000 8715.000000 6287.000000 6287.000000 
0.760000 0.250000 0.480000 0.120000 0.120000 7898.000000 6089.000000 6089.000000 
0.780000 0.260000 0.510000 0.090000 0.090000 8963.000000 7874.000000 7874.000000 
0.770000 0.310000 0.530000 0.110000 0.090000 11216.000000 9362.000000 9391.000000 
0.620000 0.170000 0.420000 0.240000 0.240000 6693.000000 1797.000000 1797.000000 
0.830000 0.250000 0.550000 0.100000 0.100000 10511.000000 9386.000000 9386.000000 
0.800000 0.250000 0.520000 0.130000 0.130000 10756.000000 9511.000000 9511.000000 
0.750000 0.250000 0.510000 0.090000 0.090000 7987.000000 7471.000000 7471.000000 
0.780000 0.260000 0.480000 0.120000 0.120000 8644.000000 6049.000000 6049.000000 
0.800000 0.260000 0.530000 0.170000 0.170000 9238.000000 6391.000000 6391.000000 
0.720000 0.260000 0.460000 0.140000 0.140000 8344.000000 6108.000000 6108.000000 
0.800000 0.240000 0.540000 0.130000 0.130000 10788.000000 9297.000000 9297.000000 
0.820000 0.260000 0.570000 0.120000 0.120000 10072.000000 9285.000000 9285.000000 
0.700000 0.260000 0.420000 0.120000 0.120000 11060.000000 8512.000000 8512.000000 
0.770000 0.290000 0.510000 0.100000 0.100000 10219.000000 8431.000000 8431.000000 
0.650000 0.260000 0.410000 0.120000 0.120000 9008.000000 6375.000000 6375.000000 
0.740000 0.260000 0.490000 0.070000 0.070000 10339.000000 9013.000000 9013.000000 
0.850000 0.260000 0.570000 0.130000 0.130000 11000.000000 9012.000000 9012.000000 
0.730000 0.280000 0.510000 0.160000 0.160000 10455.000000 8106.000000 8106.000000 
0.710000 0.260000 0.470000 0.280000 0.280000 11321.000000 4075.000000 4075.000000 
0.790000 0.260000 0.500000 0.120000 0.120000 11411.000000 10379.000000 10379.000000 
0.760000 0.250000 0.520000 0.130000 0.130000 11543.000000 9635.000000 9635.000000 
0.780000 0.230000 0.490000 0.200000 0.200000 12353.000000 8892.000000 8892.000000 
0.760000 0.240000 0.480000 0.080000 0.080000 9981.000000 8910.000000 8910.000000 
0.740000 0.260000 0.510000 0.140000 0.140000 11998.000000 9950.000000 9950.000000 
0.640000 0.230000 0.420000 0.180000 0.180000 9305.000000 5450.000000 5450.000000 
0.670000 0.220000 0.440000 0.140000 0.140000 10425.000000 7129.000000 7129.000000 
0.610000 0.200000 0.390000 0.150000 0.150000 14025.000000 6325.000000 6325.000000 
0.720000 0.340000 0.480000 0.100000 0.100000 9828.000000 8219.000000 8219.000000 
0.730000 0.260000 0.490000 0.090000 0.090000 10556.000000 8453.000000 8453.000000 
0.740000 0.280000 0.470000 0.080000 0.080000 10156.000000 8425.000000 8425.000000 
0.490000 0.210000 0.320000 0.180000 0.180000 9463.000000 5784.000000 5784.000000 
0.780000 0.260000 0.520000 0.140000 0.140000 12886.000000 9606.000000 9606.000000 
0.750000 0.250000 0.480000 0.090000 0.090000 8841.000000 7518.000000 7518.000000 
0.690000 0.280000 0.440000 0.190000 0.190000 8069.000000 5045.000000 5045.000000 
0.790000 0.260000 0.540000 0.110000 0.110000 10351.000000 8602.000000 8602.000000 
0.680000 0.240000 0.430000 0.200000 0.200000 8574.000000 5792.000000 5792.000000 
0.770000 0.240000 0.480000 0.140000 0.140000 10426.000000 8460.000000 8460.000000 
0.740000 0.270000 0.480000 0.110000 0.110000 10583.000000 8474.000000 8474.000000 
0.690000 0.240000 0.410000 0.130000 0.130000 9119.000000 6854.000000 6854.000000 
0.710000 0.330000 0.470000 0.090000 0.090000 13005.000000 10807.000000 10807.000000 
0.750000 0.260000 0.490000 0.100000 0.100000 11236.000000 9051.000000 9051.000000 
0.800000 0.270000 0.560000 0.130000 0.130000 10891.000000 8645.000000 8645.000000 
0.740000 0.280000 0.480000 0.150000 0.150000 9279.000000 6050.000000 6050.000000 
0.710000 0.300000 0.430000 0.090000 0.090000 10520.000000 8863.000000 8863.000000 
0.680000 0.270000 0.440000 0.140000 0.140000 10390.000000 7328.000000 7328.000000 
0.780000 0.270000 0.480000 0.120000 0.120000 12326.000000 9943.000000 9943.000000 
0.730000 0.290000 0.490000 0.110000 0.110000 9542.000000 8450.000000 8450.000000 
0.790000 0.280000 0.540000 0.130000 0.130000 10405.000000 8804.000000 8804.000000 
0.760000 0.230000 0.530000 0.150000 0.150000 10049.000000 7920.000000 7920.000000 
0.880000 0.260000 0.600000 0.110000 0.110000 10705.000000 9152.000000 9152.000000 
0.730000 0.250000 0.460000 0.210000 0.210000 9507.000000 5328.000000 5328.000000 
0.710000 0.280000 0.410000 0.100000 0.100000 13202.000000 11133.000000 11133.000000 
0.760000 0.240000 0.470000 0.170000 0.170000 11350.000000 9314.000000 9314.000000 
0.710000 0.260000 0.460000 0.110000 0.110000 12350.000000 9825.000000 9825.000000 
0.840000 0.240000 0.570000 0.140000 0.140000 13973.000000 10639.000000 10639.000000 
0.740000 0.270000 0.500000 0.140000 0.140000 13500.000000 10094.000000 10094.000000 
0.750000 0.230000 0.540000 0.080000 0.080000 11756.000000 10189.000000 10189.000000 
0.820000 0.240000 0.570000 0.140000 0.130000 10768.000000 8960.000000 8957.000000 
0.690000 0.250000 0.480000 0.180000 0.180000 11106.000000 8976.000000 8976.000000 
0.790000 0.270000 0.530000 0.100000 0.070000 11463.000000 10790.000000 10920.000000 
0.770000 0.270000 0.540000 0.140000 0.140000 13736.000000 11548.000000 11548.000000 
0.820000 0.240000 0.570000 0.100000 0.100000 12044.000000 9608.000000 9608.000000 
0.690000 0.200000 0.430000 0.180000 0.180000 12335.000000 8483.000000 8483.000000 
0.770000 0.250000 0.510000 0.100000 0.100000 11466.000000 9842.000000 9842.000000 
0.770000 0.260000 0.510000 0.110000 0.110000 12333.000000 10575.000000 10575.000000 
0.680000 0.260000 0.430000 0.210000 0.210000 12827.000000 8813.000000 8813.000000 
0.750000 0.250000 0.480000 0.110000 0.110000 10103.000000 7756.000000 7756.000000 
0.710000 0.240000 0.450000 0.140000 0.140000 9935.000000 7001.000000 7001.000000 
0.810000 0.240000 0.560000 0.120000 0.120000 11733.000000 10099.000000 10099.000000 
0.790000 0.250000 0.540000 0.140000 0.140000 11669.000000 9448.000000 9448.000000 
0.750000 0.270000 0.500000 0.110000 0.110000 11327.000000 9095.000000 9095.000000 
0.820000 0.230000 0.570000 0.170000 0.170000 12136.000000 10146.000000 10146.000000 
0.760000 0.250000 0.510000 0.100000 0.100000 12273.000000 10688.000000 10688.000000 
0.710000 0.240000 0.440000 0.090000 0.090000 11690.000000 9863.000000 9863.000000 
0.800000 0.170000 0.530000 0.180000 0.180000 10425.000000 8734.000000 8734.000000 
0.800000 0.260000 0.540000 0.140000 0.140000 11208.000000 8381.000000 8381.000000 
0.750000 0.280000 0.460000 0.140000 0.140000 11086.000000 8263.000000 8263.000000 
0.740000 0.260000 0.450000 0.200000 0.200000 10566.000000 6892.000000 6892.000000 
0.800000 0.270000 0.520000 0.150000 0.150000 12485.000000 9700.000000 9700.000000 
0.740000 0.260000 0.480000 0.140000 0.140000 10998.000000 7634.000000 7634.000000 
0.790000 0.240000 0.550000 0.140000 0.140000 12973.000000 10085.000000 10085.000000 
0.750000 0.250000 0.490000 0.120000 0.120000 8848.000000 7159.000000 7159.000000 
0.680000 0.280000 0.420000 0.190000 0.190000 9913.000000 5014.000000 5014.000000 
0.740000 0.260000 0.500000 0.090000 0.090000 10734.000000 8565.000000 8565.000000 
0.810000 0.220000 0.530000 0.160000 0.160000 11096.000000 7800.000000 7800.000000 
0.680000 0.240000 0.420000 0.170000 0.170000 10983.000000 6604.000000 6604.000000 
0.790000 0.260000 0.490000 0.090000 0.090000 10698.000000 9503.000000 9503.000000 
0.760000 0.260000 0.520000 0.090000 0.090000 12248.000000 9489.000000 9489.000000 
0.760000 0.170000 0.530000 0.070000 0.070000 21349.000000 20473.000000 20473.000000 
0.610000 0.240000 0.490000 0.220000 0.220000 12706.000000 5773.000000 5773.000000 
